1.970386419753086500e+02 1.970420177469135865e+02 1.970047501929012412e+02 1.968593537808641827e+02 1.967281983024691385e+02 1.966843007330246849e+02 1.966665234374999898e+02 1.966569511959876593e+02 1.966535180362654103e+02 1.966624672067900974e+02 1.966578756751543153e+02 1.966653202160493947e+02 1.966556037808641975e+02 1.966271826774691363e+02 1.966176615547839504e+02 1.966067640817901179e+02 1.965691493055555554e+02 1.965416984953703547e+02 1.965143851273148243e+02 1.964814375964506326e+02 1.964527102623456756e+02 1.964416454475308740e+02 1.964454566936728384e+02 1.964609326774691169e+02 1.964707518325617457e+02 1.964613917824074178e+02 1.964660522762345636e+02 1.964573181905864203e+02 1.964315745563271776e+02 1.964114573688271719e+02 1.963695119598765473e+02 1.964241912615740659e+02 1.964280169753086511e+02 1.963938869598765393e+02 1.963529499421296407e+02 1.963311410108024688e+02 1.963075144675925969e+02 1.962949908371913637e+02 1.964454552469135820e+02 1.964233907214506303e+02 1.962808801118827091e+02 1.960239689429012344e+02 1.956731823881172829e+02 1.953566642554012276e+02 1.950535190007715869e+02 1.947926437114197427e+02 1.945550877700617320e+02 1.953714076967592348e+02 1.957008719135802721e+02 1.958331573109568069e+02 1.959418706597222126e+02 1.960361540316358173e+02 1.961241198881172636e+02 1.962164419367283870e+02 1.963033825231481728e+02 1.963831741898148096e+02 1.964457079475308774e+02 1.964826142939814986e+02 1.965116358024691579e+02 1.965365760030864237e+02 1.965523992091049479e+02 1.965547419945987713e+02 1.965112818287037157e+02 1.965236535493827148e+02 1.964991353202160269e+02 1.964850077160493811e+02 1.964682923418209839e+02 1.964757479745370290e+02 1.964649064429012526e+02 1.964633728780864317e+02 1.964724686535493845e+02 1.964640634645061823e+02 1.964581428433642145e+02 1.964608135609567796e+02 1.964659114583333519e+02 1.964649701003086193e+02 1.964504586226851757e+02 1.964469999035493686e+02 1.964253655478395046e+02 1.964268904320987588e+02 1.964189400077160315e+02 1.964170896026234345e+02 1.964114978780864078e+02 1.963959987461419701e+02 1.963969989390432147e+02 1.963922477816358025e+02 1.963807065007715948e+02 1.963731442901234345e+02 1.963530160108024631e+02 1.963364038387345545e+02 1.963265268132716130e+02 1.963282590663580436e+02 1.963315576774691351e+02 1.962773505015432249e+02 1.962740089699074133e+02 1.962676996527777931e+02 1.962588237847222388e+02 1.962596277006172727e+02 1.962541155478395183e+02 1.962532421875000068e+02 1.962392819251543017e+02 1.962156211419753049e+02 1.962019569830247008e+02 1.961812798996913614e+02 1.961450197723765427e+02 1.961392221257715960e+02 1.961261487268518522e+02 1.961058304398148096e+02 1.960974083719135876e+02 1.960797636959876797e+02 1.960669439621913455e+02 1.960424999999999898e+02 1.960469454089506200e+02 1.960392100694444366e+02 1.960397984182098696e+02 1.960317645640432147e+02 1.960173543595678893e+02 1.960111400462963047e+02 1.959833121141975312e+02 1.959812967785493640e+02 1.959573722029321061e+02 1.959385117669753242e+02 1.959198649691358014e+02 1.959053076774691533e+02 1.958037239583333360e+02 1.957983068094135888e+02 1.957840210262345693e+02 1.957659268904320982e+02 1.957471465084876741e+02 1.957279200424382850e+02 1.957153163580246940e+02 1.957277281057098719e+02 1.957270857445987531e+02 1.957229320987654262e+02 1.957213908179012378e+02 1.957358482831790241e+02 1.957267886766975096e+02 1.957299840856481410e+02 1.957333024691358219e+02 1.957607778742284097e+02 1.957562210648148096e+02 1.957395650077160383e+02 1.957047458526234607e+02 1.957318205054012310e+02 1.957471291473765405e+02 1.957623167438271707e+02 1.957592312885802528e+02 1.957632286844135763e+02 1.957586352237654523e+02 1.957385575810185117e+02 1.957171267361111120e+02 1.957063917824074224e+02 1.956953544560185208e+02 1.956664520640431988e+02 1.956340012538580027e+02 1.954252912808642009e+02 1.954495061728395058e+02 1.954300882523148175e+02 1.953913575424382714e+02 1.953640176504629551e+02 1.953544637345679007e+02 1.953241073495370586e+02 1.953076388888889028e+02 1.952910706018518567e+02 1.952773099922839322e+02 1.952618745177469179e+02 1.952485146604938393e+02 1.952615157214506212e+02 1.952740711805555804e+02 1.952825434027777760e+02 1.952945707947530707e+02 1.952953409529320936e+02 1.952851051311728554e+02 1.952935643325617150e+02 1.952822048611110972e+02 1.952710604745370233e+02 1.952533670910493697e+02 1.952507952353394955e+02 1.952375221836419712e+02 1.952322429591049229e+02 1.952246629050925719e+02 1.952199151234567864e+02 1.952068730709876547e+02 1.951859432870370483e+02 1.951752136381172988e+02 1.951715205439814724e+02 1.951377695794753038e+02 1.951492255015432136e+02 1.951398220486111086e+02 1.951316647376543187e+02 1.951124305555555338e+02 1.951035768711419678e+02 1.951083796296296100e+02 1.950889694251543176e+02 1.950741869212963024e+02 1.950749474344135876e+02 1.950811578896604885e+02 1.950850453317901270e+02 1.951037090084876695e+02 1.950979701967592348e+02 1.951006949266975425e+02 1.950990330825617320e+02 1.950895317322530786e+02 1.950795486111111074e+02 1.950580806327160417e+02 1.950446841242283824e+02 1.950451326195987747e+02 1.950474078896604908e+02 1.950692853009259125e+02 1.950670380015432102e+02 1.950792226080247076e+02 1.950874238040123316e+02 1.950806775655864271e+02 1.950758039158950510e+02 1.950900597993827148e+02 1.950997135416666595e+02 1.951147429591049445e+02 1.950873813657407538e+02 1.950996677276234550e+02 1.950914038387345784e+02 1.950867317708333246e+02 1.950972077546296362e+02 1.951051114004629596e+02 1.951033714313271616e+02 1.951092404513888710e+02 1.951005488040123623e+02 1.950759939236110938e+02 1.950620727237654251e+02 1.950580179398148175e+02 1.950315210262345431e+02 1.950305844907407504e+02 1.950223437500000045e+02 1.950089670138889062e+02 1.950090711805555657e+02 1.949961554783950817e+02 1.949841097608024540e+02 1.949703858024691385e+02 1.949595669367284074e+02 1.949447342785493902e+02 1.949357812499999909e+02 1.949235001929012299e+02 1.949130203510802346e+02 1.949076620370370279e+02 1.948983777006172886e+02 1.948793938078703718e+02 1.948779475308641906e+02 1.948713961226851836e+02 1.948793788580246940e+02 1.948863633294753015e+02 1.948741637731481262e+02 1.948499238040123203e+02 1.948318200231481399e+02 1.948198389274691351e+02 1.948189988425925776e+02 1.948051514274691272e+02 1.947937808641975153e+02 1.947839863040123305e+02 1.947548181905864055e+02 1.947491671489197529e+02 1.947359572723765382e+02 1.947347796103395012e+02 1.947230483217592507e+02 1.947210498649691317e+02 1.947306221064814622e+02 1.947261916473765382e+02 1.947327247299382691e+02 1.947358974729938268e+02 1.947386212384259352e+02 1.947356206597222297e+02 1.947318185763888891e+02 1.947138671875000000e+02 1.947050043402777817e+02 1.947004070216049172e+02 1.947058434606481399e+02 1.946965268132716176e+02 1.946825212191358219e+02 1.946882513503086329e+02 1.946827748842592598e+02 1.947040461033950578e+02 1.947162953317901213e+02 1.946979538001543233e+02 1.946984370177469259e+02 1.947041063850308831e+02 1.947181264467592712e+02 1.947184765625000011e+02 1.947211308834876604e+02 1.947260696373456881e+02 1.947231727430555566e+02 1.947193605324073928e+02 1.947277401620370370e+02 1.947064009452160462e+02 1.946895630787036851e+02 1.946749204282407391e+02 1.946583342978395024e+02 1.946618967013889119e+02 1.946480830439814724e+02 1.946490379050925981e+02 1.946503848379629460e+02 1.946482653356481478e+02 1.946476490162037010e+02 1.946462808641975357e+02 1.946398148148148266e+02 1.946374324845679098e+02 1.946234172453703763e+02 1.946041382137345579e+02 1.945956129436728475e+02 1.945828062307098776e+02 1.945645076195987713e+02 1.945508608217592723e+02 1.944217766203703661e+02 1.944241169945987622e+02 1.944233955439814849e+02 1.944056331983024677e+02 1.943937538580246951e+02 1.943772468171296453e+02 1.943744169560185071e+02 1.943661381172839526e+02 1.943608203125000102e+02 1.943577527006172829e+02 1.943527768132716176e+02 1.943508188657407345e+02 1.943434823495370267e+02 1.943502276234567887e+02 1.943394077932098867e+02 1.943329615162037101e+02 1.943291618441357969e+02 1.943311154513888823e+02 1.943310223765432170e+02 1.943181592399691340e+02 1.943201258680555554e+02 1.943211549961419564e+02 1.943266594328703718e+02 1.943157817322531002e+02 1.942958685378086443e+02 1.942899850501543426e+02 1.942667751736111086e+02 1.942599262152777726e+02 1.942473967978395137e+02 1.942386236496913625e+02 1.940823263888889016e+02 1.940863628472222331e+02 1.940786781442901088e+02 1.940755931712963047e+02 1.940607793209876490e+02 1.940489211998456938e+02 1.940567703510802460e+02 1.940403698881172829e+02 1.940301007908950623e+02 1.940231380208333576e+02 1.940242226080247008e+02 1.940220659722222081e+02 1.940235913387345477e+02 1.940162615740740648e+02 1.940049445408950817e+02 1.939981264467592723e+02 1.939940837191358014e+02 1.939789303626543244e+02 1.939648090277777612e+02 1.939404827353394865e+02 1.939253144290123316e+02 1.939225245949074008e+02 1.939053525270061868e+02 1.938877015817901395e+02 1.938736043595679064e+02 1.938665899884259147e+02 1.938339443479938211e+02 1.938137885802469214e+02 1.938020900848765393e+02 1.937858207947530786e+02 1.937678785686728418e+02 1.936983593749999955e+02 1.936989057677469077e+02 1.937089062499999841e+02 1.937098644868827364e+02 1.936905068479938450e+02 1.936857431520061823e+02 1.936886467978395103e+02 1.936824734760802471e+02 1.936732383294752822e+02 1.936745529513888755e+02 1.936622188464505996e+02 1.936531602044753129e+02 1.936552946566358173e+02 1.936599483989197381e+02 1.936491030092592496e+02 1.936465697337962979e+02 1.936324440586419655e+02 1.936169102044753174e+02 1.935985503472222433e+02 1.935856664737654569e+02 1.935763136574074110e+02 1.935605859374999795e+02 1.935404079861111200e+02 1.935198297646604999e+02 1.935063686342592462e+02 1.934919724151234561e+02 1.934761718750000057e+02 1.934577247299382634e+02 1.934357706404321107e+02 1.934125622106481615e+02 1.933797757523147993e+02 1.931126711998456926e+02 1.931159104938271582e+02 1.931115244020061823e+02 1.930898654513889028e+02 1.930631230709876434e+02 1.930563638117284029e+02 1.930393889853395137e+02 1.930136988811728429e+02 1.929897907021604908e+02 1.929587866512345897e+02 1.929352141203703752e+02 1.928715793788580299e+02 1.928402927276234493e+02 1.928156505594135979e+02 1.927992910879629562e+02 1.927869029706789945e+02 1.927756534529320902e+02 1.927699483989197518e+02 1.927562403549382850e+02 1.927320968364197427e+02 1.927168831983024688e+02 1.927015620177469089e+02 1.926908854166666742e+02 1.926787581983024893e+02 1.926719044174382702e+02 1.926774860146605022e+02 1.926743870563271628e+02 1.926695679012345579e+02 1.926632691936728179e+02 1.926447178819444446e+02 1.924594521604938393e+02 1.924655174575617309e+02 1.924589110725308672e+02 1.924672608024691272e+02 1.924705410879629710e+02 1.924647998649691374e+02 1.924600655864197449e+02 1.924556283757715960e+02 1.924520809220679212e+02 1.924632918595678746e+02 1.924551957947530809e+02 1.924568248456789945e+02 1.924556500771604988e+02 1.924523466435184957e+02 1.924411072530864146e+02 1.924332947530864146e+02 1.924164973958333462e+02 1.923889443479938279e+02 1.923729566936728475e+02 1.923591816165123305e+02 1.923241468942901236e+02 1.923016685956790184e+02 1.922906640624999852e+02 1.922697395833333474e+02 1.922628023726852007e+02 1.922628105709876536e+02 1.922710768711419860e+02 1.922898365162037067e+02 1.922955107060185185e+02 1.922989896797839435e+02 1.922970616319444446e+02 1.923667467206790036e+02 1.923645674189814940e+02 1.923468725887345840e+02 1.923336820023148164e+02 1.923382725694444559e+02 1.923472796103395126e+02 1.923560262345679064e+02 1.923585464891975221e+02 1.923634022955247076e+02 1.923582021604938177e+02 1.923518552276234459e+02 1.923669994212962990e+02 1.923744627700617400e+02 1.923732142168209975e+02 1.923970794753086295e+02 1.923924151234567717e+02 1.924002411265431931e+02 1.923979856288580379e+02 1.924043079668209941e+02 1.923974344135802426e+02 1.923984678819444412e+02 1.923967105516975096e+02 1.923837090084876422e+02 1.923954084683641952e+02 1.924059191743827171e+02 1.924008260995370279e+02 1.924196310763888960e+02 1.924183564814814815e+02 1.924143711419753231e+02 1.924039081790123475e+02 1.924009090470678984e+02 1.924149754050925765e+02 1.924202710262345590e+02 1.924192949459876445e+02 1.924454364390432204e+02 1.924488652584876434e+02 1.924568190586419973e+02 1.924511062885802346e+02 1.924583270640432033e+02 1.924553954475308615e+02 1.924616300154320925e+02 1.924522771990740750e+02 1.924340567129629562e+02 1.924340779320987735e+02 1.924300207368827103e+02 1.924343995949074042e+02 1.924326895254629619e+02 1.924314163773148039e+02 1.924250998263889016e+02 1.924213025655864158e+02 1.924289023919752992e+02 1.924227744020061550e+02 1.924128192515431977e+02 1.924123254243827148e+02 1.924220433063271400e+02 1.924229634452160269e+02 1.924161588541666674e+02 1.924029996141975403e+02 1.923962249228395081e+02 1.923936603009259443e+02 1.923907855902777726e+02 1.923241073495370586e+02 1.923439192708333110e+02 1.923360281635802664e+02 1.923187186535493822e+02 1.923188266782407538e+02 1.923109789737654296e+02 1.923071233603395171e+02 1.923273654513888857e+02 1.923275868055555691e+02 1.923337162422839413e+02 1.923467925347222263e+02 1.923430647183641895e+02 1.923435185185185219e+02 1.923490692515431988e+02 1.923476842206790138e+02 1.923384346064814849e+02 1.922725655864197449e+02 1.922299744405864317e+02 1.921753968942901167e+02 1.923076268325617093e+02 1.923742674575617286e+02 1.933686000192901133e+02 1.954552792245370370e+02 1.975329181134259500e+02 1.977242346643518545e+02 1.978469868827160383e+02 1.979028096064814690e+02 1.979256360918209907e+02 1.979232696759259227e+02 1.978982146990740603e+02 1.978679200424382714e+02 1.980726822916666663e+02 1.980474199459876559e+02 1.979940398341049388e+02 1.979620037615740671e+02 1.979253419174382600e+02 1.979050646219135672e+02 1.978794560185185105e+02 1.978583960262345727e+02 1.978356635802469157e+02 1.978227903163580379e+02 1.978081635802469123e+02 1.977909833140432170e+02 1.977714501350308467e+02 1.977621928047839504e+02 1.977657065007715858e+02 1.977538720100308467e+02 1.977424619020061698e+02 1.977302469135802312e+02 1.977244184027777862e+02 1.977171725501543165e+02 1.977168233989197574e+02 1.977066319444444389e+02 1.976916401427469054e+02 1.976744227430555441e+02 1.976612717013888698e+02 1.976551900077160440e+02 1.976498640046296202e+02 1.976463845486111097e+02 1.976390895061728372e+02 1.976441112075617355e+02 1.976453211805555554e+02 1.976611279899691169e+02 1.976541830632716028e+02 1.976300713734567864e+02 1.976165600887345590e+02 1.976074585262345522e+02 1.976052768132715869e+02 1.975962586805555645e+02 1.976042505787037271e+02 1.976121132330247008e+02 1.976161786265432170e+02 1.976071580825617389e+02 1.976069381751543119e+02 1.976028206983024802e+02 1.976040393518518385e+02 1.976045833333333519e+02 1.976036477623456733e+02 1.975956235532407277e+02 1.975874729938271628e+02 1.975824098186728293e+02 1.975737610918209839e+02 1.975608506944444400e+02 1.975578115354938404e+02 1.975498562885802301e+02 1.975444217785493777e+02 1.975409211033950498e+02 1.975303380594135945e+02 1.975232846257715948e+02 1.975215354938271446e+02 1.975240827546296316e+02 1.975194926697531059e+02 1.974659490740740750e+02 1.974693566743827091e+02 1.974579123263889073e+02 1.974409288194444514e+02 1.974211564429012356e+02 1.974082089120370540e+02 1.973970539158950714e+02 1.973813271604938393e+02 1.973563040123456744e+02 1.973245645254629608e+02 1.972900588348765609e+02 1.972630473572531002e+02 1.972434871720679155e+02 1.972296696566358207e+02 1.972180145640431874e+02 1.972038985339506212e+02 1.972050877700617093e+02 1.972032802854938041e+02 1.972030029899691215e+02 1.971949628665123555e+02 1.971893778935185253e+02 1.971872892554012253e+02 1.971783420138888800e+02 1.971813117283950874e+02 1.971742235725308774e+02 1.971690104166666799e+02 1.971638469328703707e+02 1.971525588348765439e+02 1.971476094714506360e+02 1.971366845100308467e+02 1.971311776620370324e+02 1.970943778935185264e+02 1.970858767361111177e+02 1.970707643711419621e+02 1.970612268518518420e+02 1.970576847029320788e+02 1.970585628858024734e+02 1.970485320216049274e+02 1.970460937500000114e+02 1.970460450424382657e+02 1.970381201774691533e+02 1.970314424189814986e+02 1.970290133101851779e+02 1.970284630594135820e+02 1.970274705825617332e+02 1.970204017168209703e+02 1.970207773919753151e+02 1.970149397183641895e+02 1.970012707368827307e+02 1.969946040702160417e+02 1.969909968171296271e+02 1.969829943094135842e+02 1.969747106481481467e+02 1.969737972608024847e+02 1.969708511766975221e+02 1.969670886381172750e+02 1.969594044174382645e+02 1.969588131751543187e+02 1.969535947145061812e+02 1.969507778742284074e+02 1.969436525848765598e+02 1.969375863233024688e+02 1.968828139467592564e+02 1.968774228395061812e+02 1.968653071952160474e+02 1.968659727044752970e+02 1.968662205825617093e+02 1.968664742476851757e+02 1.968696956983024791e+02 1.968710768711419803e+02 1.968709018132715869e+02 1.968740152391975471e+02 1.968655714699074224e+02 1.968623500192901190e+02 1.968644285300925958e+02 1.968611622299382589e+02 1.968612258873456824e+02 1.968583940972222024e+02 1.968458125964505996e+02 1.968366898148148039e+02 1.968320109953703536e+02 1.968259408757716074e+02 1.968218957368827091e+02 1.968161357060185424e+02 1.968130777391975244e+02 1.968059616126543290e+02 1.968015297067901201e+02 1.967884124228395137e+02 1.967835344328703684e+02 1.967784669174382657e+02 1.967663319830246849e+02 1.967473345871913750e+02 1.966452676504629551e+02 1.966395703124999841e+02 1.966135763888889016e+02 1.966064973958333155e+02 1.965942496141975369e+02 1.965889009452160678e+02 1.965807228973765461e+02 1.965738151041666697e+02 1.965681254822530946e+02 1.965622511574074167e+02 1.965553356481481728e+02 1.965399170524691215e+02 1.965320645254629710e+02 1.965216854745370370e+02 1.965061072530864124e+02 1.964931553819444616e+02 1.964806553819444446e+02 1.964726195987654478e+02 1.964616295331790354e+02 1.964538594714506416e+02 1.964384167631172886e+02 1.964255975115740966e+02 1.964127869405864146e+02 1.963963073881172932e+02 1.963856057098765291e+02 1.963803621720678905e+02 1.963717105516975323e+02 1.963564477237654273e+02 1.963472656250000057e+02 1.963437451774691169e+02 1.963347010030864226e+02 1.963039790702160587e+02 1.962936130401234607e+02 1.962800149498456790e+02 1.962647313850308421e+02 1.962520712770061664e+02 1.962461390817901190e+02 1.962327213541666424e+02 1.962152546296296407e+02 1.962074604552469168e+02 1.961972173996913398e+02 1.961912938850308592e+02 1.961874228395061550e+02 1.961715538194444548e+02 1.961714284336419780e+02 1.961618913966049433e+02 1.961513218557098810e+02 1.961455478395061789e+02 1.961397646604938245e+02 1.961326075424382793e+02 1.961251287615740750e+02 1.961266705246913489e+02 1.961162876157407595e+02 1.961011762152777749e+02 1.960969579475308535e+02 1.961012239583333212e+02 1.960932127700617400e+02 1.960845211226851745e+02 1.960786072530864317e+02 1.960760855516975312e+02 1.960654007523148152e+02 1.960526977237654478e+02 1.960146151620370176e+02 1.959826707175925833e+02 1.959664091435185185e+02 1.959627483603395035e+02 1.959563208912037169e+02 1.959619044174382907e+02 1.959700380979938359e+02 1.959787977430555657e+02 1.959850675154320925e+02 1.959872771990740716e+02 1.959975593171296282e+02 1.960036197916666652e+02 1.959945539158950680e+02 1.959971821952160269e+02 1.959941777584876377e+02 1.960024310378086341e+02 1.960090890239197279e+02 1.960095881558641793e+02 1.960026162229938222e+02 1.959931939621913557e+02 1.959876359953703684e+02 1.959807248263888653e+02 1.959742717978394921e+02 1.959696609760802346e+02 1.959678766396604885e+02 1.959756616512345602e+02 1.959737958140432283e+02 1.959688585069444571e+02 1.959702956211419860e+02 1.959677912808641906e+02 1.959743277391975198e+02 1.959663368055555566e+02 1.959532981288580231e+02 1.959408564814814895e+02 1.959331211419753060e+02 1.959249440586419553e+02 1.959173292824074224e+02 1.959018320794752981e+02 1.958947984182098878e+02 1.958836839313271412e+02 1.958741854745370290e+02 1.958714019097222376e+02 1.958645606674382691e+02 1.958552146026234482e+02 1.958457040895061709e+02 1.958386419753086329e+02 1.958304663387345670e+02 1.958195519868827148e+02 1.958061540316357991e+02 1.957906679205246974e+02 1.957808260995370233e+02 1.957717582947530843e+02 1.957653510802469157e+02 1.957550752314814986e+02 1.957488353587962990e+02 1.957402628279320993e+02 1.957346426504629733e+02 1.957335706018518522e+02 1.957240682870370279e+02 1.957120751350308581e+02 1.956950086805555600e+02 1.956203780864197483e+02 1.956100405092592496e+02 1.955930396412037169e+02 1.955853568672839629e+02 1.955722834683641906e+02 1.955676138117283926e+02 1.955548813657407550e+02 1.955490576774691363e+02 1.955417549189814679e+02 1.955351596257715983e+02 1.955311829668210066e+02 1.955228385416666583e+02 1.955101760223765552e+02 1.955018610146604772e+02 1.954906438078703843e+02 1.954850458140432181e+02 1.954758367091049536e+02 1.954659630594135820e+02 1.954633444251543324e+02 1.954612094907407425e+02 1.954542298418209896e+02 1.954349103009259352e+02 1.954280705054012230e+02 1.954213257137345749e+02 1.954273196373456756e+02 1.954251943479938234e+02 1.954269039351851802e+02 1.954317066936728224e+02 1.954430743634259500e+02 1.954428182870370279e+02 1.954485127314814576e+02 1.953913729745370347e+02 1.953804909336419655e+02 1.953841661844135729e+02 1.953967500964506314e+02 1.954054687500000114e+02 1.954187003279321004e+02 1.954343041087962831e+02 1.954458227237654455e+02 1.954567886766975278e+02 1.954684066358024950e+02 1.954715499614197540e+02 1.954748032407407550e+02 1.954810773533950510e+02 1.954824117476852052e+02 1.954824585262345522e+02 1.954817095871913750e+02 1.954706944444444616e+02 1.954572743055555577e+02 1.954599643132715983e+02 1.954560734953703900e+02 1.954520563271604772e+02 1.954438917824074053e+02 1.954458801118827012e+02 1.954477811535493856e+02 1.954574488811728372e+02 1.954554976851851791e+02 1.954535961612654376e+02 1.954462683256172681e+02 1.954433328510802426e+02 1.954441145833333167e+02 1.954627864583333405e+02 1.954599652777777976e+02 1.954340446566357912e+02 1.954256544174382668e+02 1.954184336419752981e+02 1.954149918016975107e+02 1.954125718557098708e+02 1.954118827160494050e+02 1.954063777970679041e+02 1.954024503279321152e+02 1.954080097415123305e+02 1.954036361882716051e+02 1.954023254243826955e+02 1.953993045910494004e+02 1.954018219521605033e+02 1.953985778356481262e+02 1.954011149691357900e+02 1.954036578896605079e+02 1.954384548611110972e+02 1.962559640239197449e+02 1.962223712384259500e+02
3.061084635416666799e+01 3.062719376929012327e+01 3.066490306712963232e+01 3.075026668595678814e+01 3.078236786265431846e+01 3.079406539351851535e+01 3.080205391589506192e+01 3.079364920910493808e+01 3.080145254629629648e+01 3.078795187114197773e+01 3.076062162422839208e+01 3.076961371527778155e+01 3.073967881944444613e+01 3.067147424768518249e+01 3.065230324074074275e+01 3.062181471836419888e+01 3.054260513117284148e+01 3.046853636188271608e+01 3.036566792052469310e+01 3.028168451003086403e+01 3.018160879629629534e+01 3.011997588734568154e+01 3.008029176311728392e+01 3.007481915509259096e+01 3.007461564429012313e+01 3.004216435185185219e+01 3.002852719907407320e+01 2.999275462962962990e+01 2.993143229166666686e+01 2.987097270447530661e+01 2.977477382330247124e+01 2.930120418595679155e+01 2.932054976851851791e+01 2.934930410879629648e+01 2.939108796296296333e+01 2.937731240354938222e+01 2.936067226080247039e+01 2.935957079475308973e+01 2.970544560185184935e+01 2.968056568287036967e+01 2.932743489583333485e+01 2.874140625000000071e+01 2.795979118441357869e+01 2.714027295524691397e+01 2.642848379629629818e+01 2.591141107253086417e+01 2.547614486882715923e+01 2.700401282793209745e+01 2.781182484567901270e+01 2.815106674382716179e+01 2.838128134645061706e+01 2.856937741126543173e+01 2.872310040509259110e+01 2.888396846064814838e+01 2.906005642361111185e+01 2.921046682098765146e+01 2.938447916666666515e+01 2.949864728009259096e+01 2.959169994212962962e+01 2.968564380787037038e+01 2.976243875385802440e+01 2.979662663966049152e+01 2.981333092206790170e+01 2.981095630787037010e+01 2.982564477237654188e+01 2.981751446759259494e+01 2.979479938271605022e+01 2.980711660879629576e+01 2.982723910108024512e+01 2.985954041280864146e+01 2.986879243827160479e+01 2.985586419753086318e+01 2.986952449845679070e+01 2.987176215277777658e+01 2.985977768132715937e+01 2.983208719135802411e+01 2.982476562500000128e+01 2.983297743055555529e+01 2.983030430169753089e+01 2.986388406635802539e+01 2.988737364969135868e+01 2.991910156249999986e+01 2.992060088734567813e+01 2.992297791280864416e+01 2.990534481095679098e+01 2.987952980324074304e+01 2.984867091049382637e+01 2.983447868441358253e+01 2.978807146990740762e+01 2.973753086419753089e+01 2.970811053240741018e+01 2.971710310570987801e+01 2.973487027391975346e+01 2.951019434799382779e+01 2.955166087962962962e+01 2.960251109182098617e+01 2.964281973379629420e+01 2.964876494984567756e+01 2.967621093749999872e+01 2.970350453317901440e+01 2.975138744212963005e+01 2.984337191358024910e+01 2.993237316743827137e+01 3.001042631172839492e+01 3.007857831790123271e+01 3.014240740740740776e+01 3.018554398148148366e+01 3.020465326003086304e+01 3.017702739197530803e+01 3.019366415895061806e+01 3.021540219907407376e+01 3.018080777391975289e+01 3.017169463734568069e+01 3.019579282407407206e+01 3.019196132330246840e+01 3.018569106867283836e+01 3.017727527006172750e+01 3.014397472993827165e+01 3.011822145061728406e+01 3.011097077546296319e+01 3.009761959876543003e+01 3.008353684413580353e+01 3.005156249999999929e+01 3.001893229166666899e+01 2.973311487268518505e+01 2.972938850308641889e+01 2.964532552083333172e+01 2.954393952546296376e+01 2.941767698688271437e+01 2.925761959876543372e+01 2.908770592206790084e+01 2.896881510416666572e+01 2.890697048611111342e+01 2.886454668209876218e+01 2.879523292824073977e+01 2.871772087191358125e+01 2.862686149691358040e+01 2.854929735725308504e+01 2.846736496913580083e+01 2.839386670524691425e+01 2.833530864197530974e+01 2.824614920910493865e+01 2.803283227237654529e+01 2.760328607253086375e+01 2.734340470679012469e+01 2.724688078703703553e+01 2.718022617669753060e+01 2.716920042438271565e+01 2.719825617283950336e+01 2.729850839120370409e+01 2.740270640432098759e+01 2.749674286265432244e+01 2.758569444444444230e+01 2.768441936728395092e+01 2.781610580632716179e+01 2.822354456018518221e+01 2.830070794753086361e+01 2.843886332947531059e+01 2.869784481095679141e+01 2.903222511574074005e+01 2.920157359182098844e+01 2.929268277391975417e+01 2.941406973379629619e+01 2.954250337577160224e+01 2.968446952160493879e+01 2.984113136574073977e+01 2.993205295138888999e+01 3.003375675154320845e+01 3.012647231867283892e+01 3.019186776620370338e+01 3.020294319058642074e+01 3.019617332175926094e+01 3.020725453317901099e+01 3.023745707947530903e+01 3.021952594521604851e+01 3.021637972608024825e+01 3.022763599537037038e+01 3.023394290123456685e+01 3.023217881944444230e+01 3.023400848765432158e+01 3.021044704861111185e+01 3.021025414737654202e+01 3.021689477237654131e+01 3.018004822530864217e+01 3.015817322530864075e+01 3.014860677083333229e+01 3.004203414351851720e+01 3.009042534722222229e+01 3.008303964120370466e+01 3.005261381172839563e+01 2.999727912808641861e+01 2.995171440972222143e+01 2.991629243827160423e+01 2.989283998842592638e+01 2.986774450231481381e+01 2.985141589506172721e+01 2.985251880787037138e+01 2.987636574074073792e+01 2.991695264274691368e+01 2.990915943287037138e+01 2.992198591820987730e+01 2.992247636959876544e+01 2.989759452160494035e+01 2.988762056327160366e+01 2.986050974151234527e+01 2.984298032407407320e+01 2.983065393518518604e+01 2.983459972993827236e+01 2.985010898919753330e+01 2.988638551311728264e+01 2.991136429398148167e+01 2.992719087577160408e+01 2.991390721450617107e+01 2.989915943287036981e+01 2.993542727623457012e+01 2.993880160108024668e+01 2.995655815972222413e+01 2.990364535108024668e+01 2.994737268518518292e+01 2.996415991512345656e+01 2.997974151234567941e+01 2.998885898919753146e+01 3.000633873456790113e+01 3.001050154320987673e+01 3.000135513117283992e+01 3.000314477237654387e+01 2.997907648533950464e+01 2.994397762345679226e+01 2.993001784336419746e+01 2.990001736111111086e+01 2.990386622299382680e+01 2.989498022762345997e+01 2.986239776234567955e+01 2.982108362268518675e+01 2.978804012345678842e+01 2.977170621141975104e+01 2.976411844135802554e+01 2.971854456018518675e+01 2.969377893518518619e+01 2.966595341435185063e+01 2.963311728395061806e+01 2.962208043981481254e+01 2.959237316743827151e+01 2.953942611882715852e+01 2.950070167824074119e+01 2.946799672067901099e+01 2.943156105324074190e+01 2.888870611496913554e+01 2.890931616512345670e+01 2.889180410879629690e+01 2.885680121527778041e+01 2.881158275462962948e+01 2.875597077546296276e+01 2.873327498070987573e+01 2.870546730324073792e+01 2.866042486496913710e+01 2.863486207561728492e+01 2.858579861111110887e+01 2.855194733796296447e+01 2.851303144290123370e+01 2.846015721450617164e+01 2.841052276234567842e+01 2.837414834104938066e+01 2.835857108410493765e+01 2.832130497685185233e+01 2.830912905092592524e+01 2.831542100694444386e+01 2.832631896219135825e+01 2.832281732253086304e+01 2.831238522376543187e+01 2.827848042052469069e+01 2.825124469521605164e+01 2.824040123456790141e+01 2.822677179783950407e+01 2.821394386574074176e+01 2.818362172067901383e+01 2.816274160879629562e+01 2.816191502700617377e+01 2.785254195601851634e+01 2.785464361496913455e+01 2.787813223379629690e+01 2.788683883101851890e+01 2.787818479938271565e+01 2.791714891975308532e+01 2.793197096836419746e+01 2.797116560570987431e+01 2.799950906635802284e+01 2.800477912808641889e+01 2.802486159336419647e+01 2.802552131558642046e+01 2.802247202932098702e+01 2.801990113811728378e+01 2.800506703317901369e+01 2.798201244212962990e+01 2.797806809413580353e+01 2.799007908950617107e+01 2.800037953317901440e+01 2.800552565586419718e+01 2.803100356867283693e+01 2.805081211419753018e+01 2.807402584876543372e+01 2.810524836033950535e+01 2.814949893904320888e+01 2.825135947145061621e+01 2.827186824845679070e+01 2.829642023533950734e+01 2.829238570601851777e+01 2.826607108410493652e+01 2.825034432870370438e+01 2.807975356867283878e+01 2.807641155478394879e+01 2.808444058641975616e+01 2.807379147376543216e+01 2.805298177083333400e+01 2.804623456790123370e+01 2.805260368441357954e+01 2.806074315200617164e+01 2.809851273148148110e+01 2.809125482253086403e+01 2.807299720293209688e+01 2.806599344135802454e+01 2.802498890817901156e+01 2.801118634259259110e+01 2.801166570216049223e+01 2.800832465277777672e+01 2.802638937114197759e+01 2.804522231867283821e+01 2.807790702160493979e+01 2.807174961419752890e+01 2.808351658950617491e+01 2.810399498456790113e+01 2.813709924768518533e+01 2.814985243055555486e+01 2.815272328317901440e+01 2.813852768132716164e+01 2.811567177854938393e+01 2.810792293595678970e+01 2.811552372685185119e+01 2.812586950231481708e+01 2.813435040509259366e+01 2.816415991512345940e+01 2.816103925540123498e+01 2.815020978009259167e+01 2.812545958719135797e+01 2.812824266975308518e+01 2.813215181327160508e+01 2.812459104938271537e+01 2.814160734953703624e+01 2.816116801697531002e+01 2.816649739583333556e+01 2.818480613425926151e+01 2.819050057870370196e+01 2.818468750000000256e+01 2.816062258873456869e+01 2.814130738811728349e+01 2.811892698688271608e+01 2.807075376157407476e+01 2.803166618441358082e+01 2.799825086805555685e+01 2.796591001157407419e+01 2.794695746527777658e+01 2.793539689429012185e+01 2.792504388503086687e+01 2.791908468364197660e+01 2.790753086419753259e+01 2.786456886574073977e+01 2.782877507716049337e+01 2.781349585262345414e+01 2.777180844907407220e+01 2.774911024305555429e+01 2.747782986111111114e+01 2.750239631558642017e+01 2.748154755015432116e+01 2.744633246527777715e+01 2.740072627314814824e+01 2.735344135802469268e+01 2.733147472993827165e+01 2.730746286651234556e+01 2.728201533564814696e+01 2.725812837577160508e+01 2.725655526620370495e+01 2.725190923996913384e+01 2.725267505787036981e+01 2.724681568287036981e+01 2.725165750385802355e+01 2.724246672453703866e+01 2.725055362654320845e+01 2.723674623842592624e+01 2.723194492669753330e+01 2.723618055555555628e+01 2.724396556712962791e+01 2.724738522376543060e+01 2.725386622299382822e+01 2.726771653163580211e+01 2.728042824074073991e+01 2.726535252700617562e+01 2.723942804783950677e+01 2.722700954861111100e+01 2.721665750385802340e+01 2.720763792438271622e+01 2.719741367669753274e+01 2.700155815972222229e+01 2.705555266203703724e+01 2.709281346450617178e+01 2.712382667824073934e+01 2.714425829475308660e+01 2.713541956018518420e+01 2.713458429783950621e+01 2.707735821759259309e+01 2.703338252314814838e+01 2.697754533179012526e+01 2.692290846836419860e+01 2.683159673996913597e+01 2.677635657793209845e+01 2.672697530864197546e+01 2.668586130401234513e+01 2.667813030478395220e+01 2.664855468750000256e+01 2.663489438657407149e+01 2.664126350308642088e+01 2.661209538966049593e+01 2.658118489583333499e+01 2.655548080632716079e+01 2.654463155864197432e+01 2.654612220293209646e+01 2.656660397376543159e+01 2.658148726851851862e+01 2.658350790895061877e+01 2.658226948302468884e+01 2.659676215277777800e+01 2.658783323688271594e+01 2.643321469907407462e+01 2.646813560956790212e+01 2.649287422839505979e+01 2.650644724151234399e+01 2.653546344521604894e+01 2.652672743055555316e+01 2.650878182870370381e+01 2.650850742669753402e+01 2.650770688657407348e+01 2.651794367283950393e+01 2.652422839506172991e+01 2.654073398919753402e+01 2.658441743827160408e+01 2.661156587577160693e+01 2.661227527006172622e+01 2.659757378472222200e+01 2.656387731481481396e+01 2.655075665509259153e+01 2.651249324845679212e+01 2.647192756558641946e+01 2.639662905092592737e+01 2.633781008873456742e+01 2.628080295138888900e+01 2.622146026234567628e+01 2.614293981481481310e+01 2.607173611111111100e+01 2.604619598765432187e+01 2.602468364197530803e+01 2.600594135802469253e+01 2.598464940200616979e+01 2.595934558256172764e+01 2.549738474151234513e+01 2.550012152777777530e+01 2.549813753858024512e+01 2.547999228395061877e+01 2.548165702160493851e+01 2.545328944830247053e+01 2.543262490354938521e+01 2.541822048611111029e+01 2.540173466435184935e+01 2.537763647762345798e+01 2.533988040123456997e+01 2.533904513888888843e+01 2.534569589120370381e+01 2.532588975694444500e+01 2.532719087577160622e+01 2.531691454475308589e+01 2.529798900462963118e+01 2.529139371141975090e+01 2.527435088734567969e+01 2.525229311342592453e+01 2.523726948302468998e+01 2.521288387345679283e+01 2.519130594135802426e+01 2.519938753858024683e+01 2.521665171682098716e+01 2.521300009645061735e+01 2.521105661651234797e+01 2.520358699845678885e+01 2.519970486111111185e+01 2.516722849151234342e+01 2.516683593750000014e+01 2.499950183256172664e+01 2.503517361111110873e+01 2.505170621141975218e+01 2.510020978009259096e+01 2.511099103009259181e+01 2.513129967206790027e+01 2.513978443287036768e+01 2.515763406635802468e+01 2.517119646990740733e+01 2.517812885802468870e+01 2.517805893132716122e+01 2.518705825617283622e+01 2.520158805941358082e+01 2.521941068672839492e+01 2.523438319830247067e+01 2.526173418209876687e+01 2.525212866512345755e+01 2.525371961805555543e+01 2.525782118055555614e+01 2.527503568672839407e+01 2.528769772376543301e+01 2.528926697530864232e+01 2.530220679012345997e+01 2.533854118441357883e+01 2.535470679012345485e+01 2.536106288580247181e+01 2.537609423225308447e+01 2.538380449459876687e+01 2.537419704861111214e+01 2.537109905478395078e+01 2.519463493441358182e+01 2.522430603780864189e+01 2.523601224922839492e+01 2.526683063271604723e+01 2.525061246141975246e+01 2.526513744212963175e+01 2.528609230324073920e+01 2.532067081404320774e+01 2.534250916280864274e+01 2.537526186342592638e+01 2.541704812885802411e+01 2.546432870370370338e+01 2.549995563271604837e+01 2.553281249999999858e+01 2.557479166666666970e+01 2.557610484182098887e+01 2.541838300540123541e+01 2.518658757716049479e+01 2.453043499228395063e+01 2.368977816358024668e+01 2.327901379243827051e+01 2.345346595293209901e+01 2.479421055169752819e+01 2.634701388888889184e+01 2.663599054783950848e+01 2.681350260416666842e+01 2.687064187885802369e+01 2.690577642746913511e+01 2.710033516589506419e+01 2.758923128858024754e+01 2.782818190586419860e+01 2.870157214506172849e+01 2.887153886959876559e+01 2.901973620756172778e+01 2.909904803240740634e+01 2.920542824074074062e+01 2.926039255401234485e+01 2.937802758487654131e+01 2.944427083333333428e+01 2.949868827160493723e+01 2.952289641203703852e+01 2.958176456404320831e+01 2.965638599537036768e+01 2.972713638117284063e+01 2.973882957175925768e+01 2.975492573302468813e+01 2.981379726080247039e+01 2.984069203317901042e+01 2.986326919367284205e+01 2.983134403935185119e+01 2.979765432098765388e+01 2.977534384645061749e+01 2.977037278163580325e+01 2.979144290123456784e+01 2.981953703703703695e+01 2.982892409336419703e+01 2.980278308256172792e+01 2.977469618055555500e+01 2.975096209490740762e+01 2.972206259645061621e+01 2.967820408950617050e+01 2.962779417438271423e+01 2.926752748842592666e+01 2.929152343750000043e+01 2.924164785879629491e+01 2.921453510802469111e+01 2.919452594521604993e+01 2.915744936342592553e+01 2.913674430941357940e+01 2.911229745370370381e+01 2.905292197145061550e+01 2.899893180941358040e+01 2.892960889274691283e+01 2.888691792052469154e+01 2.884568431712962777e+01 2.882436342592592737e+01 2.883625868055555586e+01 2.884864438657407604e+01 2.886740933641975104e+01 2.888963107638889127e+01 2.889604841820987602e+01 2.890241608796296191e+01 2.891634837962962834e+01 2.891377748842592510e+01 2.890550009645061991e+01 2.891846547067900985e+01 2.892593171296296006e+01 2.894288580246913511e+01 2.895106867283950791e+01 2.894521894290123498e+01 2.895535156249999886e+01 2.897237316743827051e+01 2.889741801697531187e+01 2.890173225308642202e+01 2.889280767746913625e+01 2.888193576388888673e+01 2.887039351851851876e+01 2.886583140432098560e+01 2.886433883101852160e+01 2.884135850694444514e+01 2.886787567515431974e+01 2.892682629243827108e+01 2.897719714506173005e+01 2.901232976466049607e+01 2.903819396219135740e+01 2.905315393518518619e+01 2.906163242669753188e+01 2.904929446373456869e+01 2.904636091820987431e+01 2.906880690586419647e+01 2.908491849922839378e+01 2.909548996913580154e+01 2.908515046296296447e+01 2.907578607253086389e+01 2.905997781635802468e+01 2.903833188657407405e+01 2.900911120756172679e+01 2.899535445601851791e+01 2.902216145833333272e+01 2.903112172067901042e+01 2.903577932098765402e+01 2.903342833719135641e+01 2.902076581790123200e+01 2.892032021604938308e+01 2.894841290509259224e+01 2.894966435185185105e+01 2.893724199459876800e+01 2.892508005401234783e+01 2.891353925540123271e+01 2.891160108024691411e+01 2.888747878086419973e+01 2.887909143518518462e+01 2.887498890817901298e+01 2.888974633487654131e+01 2.886568672839506178e+01 2.882588445216049422e+01 2.880328366126543216e+01 2.877169222608024768e+01 2.872799045138888729e+01 2.868512393904320845e+01 2.863786506558642131e+01 2.857873890817901241e+01 2.852443479938271764e+01 2.850071325231481723e+01 2.846626398533950564e+01 2.843866994598765530e+01 2.840329330632716065e+01 2.835492717978394950e+01 2.831174430941358011e+01 2.825898630401234612e+01 2.822988522376543230e+01 2.820812355324073906e+01 2.817999373070987801e+01 2.816632860725308518e+01 2.785611979166666785e+01 2.786371720679012398e+01 2.782481577932098560e+01 2.778536603009259309e+01 2.773071132330246868e+01 2.766417438271605178e+01 2.761404320987654515e+01 2.754339795524691326e+01 2.749191695601851748e+01 2.748560474537037024e+01 2.746019772376543244e+01 2.744316599151234470e+01 2.741159915123456869e+01 2.737487364969135584e+01 2.734131028163580268e+01 2.731003858024691411e+01 2.730204571759259125e+01 2.728733121141975104e+01 2.729290750385802511e+01 2.729771990740740506e+01 2.729351755401234669e+01 2.727776909722222243e+01 2.726103780864197645e+01 2.725026716820987360e+01 2.725689766589506036e+01 2.725558449074074119e+01 2.724940200617283992e+01 2.724253134645061536e+01 2.724435715663580027e+01 2.725598042052469339e+01 2.718765480324073991e+01 2.721882957175925810e+01 2.723813850308641804e+01 2.726218701774691411e+01 2.729703317901234527e+01 2.732019675925926094e+01 2.732882233796296134e+01 2.732831500771604993e+01 2.735313609182098560e+01 2.735926215277777729e+01 2.738325520833333471e+01 2.740919656635802681e+01 2.743090036651234342e+01 2.747714168595679141e+01 2.749711275077160622e+01 2.749850453317901255e+01 2.750478105709876431e+01 2.749940538194444173e+01 2.749023051697530917e+01 2.748048466435185233e+01 2.747383391203703695e+01 2.749008632330246726e+01 2.752465084876543244e+01 2.752248649691357940e+01 2.752112364969135783e+01 2.751846595293210029e+01 2.752583236882716378e+01 2.751915846836419988e+01 2.751818142361111086e+01 2.751713396990740890e+01 2.750623022762345471e+01 2.743273244598765359e+01 2.744586467978395206e+01 2.745944782021605235e+01 2.749434944058641861e+01 2.750624662422839251e+01 2.750466820987654515e+01 2.749489149305555458e+01 2.748257378472222356e+01 2.745902295524691539e+01 2.744718798225308731e+01 2.743309365354938123e+01 2.743931905864197773e+01 2.746542293595679141e+01 2.748098765432098745e+01 2.747518663194444244e+01 2.747179398148147911e+01 2.744997636959876530e+01 2.743289062499999886e+01 2.740341917438271579e+01 2.736543402777777700e+01 2.737215277777777800e+01 2.737813223379629690e+01 2.738552131558641989e+01 2.738920862268518519e+01 2.737923369984567756e+01 2.736888117283950450e+01 2.736226176697531187e+01 2.730746045524691468e+01 2.726743344907407263e+01 2.721254677854938464e+01 2.716154755015432087e+01 2.678439525462962933e+01 2.683312065972222271e+01 2.684349681712962976e+01 2.685252121913580226e+01 2.684620949074074048e+01 2.682067611882715852e+01 2.677311487268518420e+01 2.672880979938271651e+01 2.673218267746913313e+01 2.673168306327160693e+01 2.676467640817901383e+01 2.678284625771604865e+01 2.680136188271604780e+01 2.681300057870370424e+01 2.682371913580246670e+01 2.682317418981481438e+01 2.681811583719136038e+01 2.681781539351851862e+01 2.681865210262345656e+01 2.683008198302469083e+01 2.683144627700617235e+01 2.684249951774691212e+01 2.683806471836419760e+01 2.683870418595678942e+01 2.682727768132716051e+01 2.681403694058641918e+01 2.681912953317901227e+01 2.681301793981481651e+01 2.680632474922839492e+01 2.680133632330246840e+01 2.667394917052469339e+01 2.671211275077160607e+01 2.674546730324074062e+01 2.677236689814814952e+01 2.680129147376543131e+01 2.683072482638888800e+01 2.686402922453703468e+01 2.689326051311728349e+01 2.690901620370370395e+01 2.692734182098765316e+01 2.694737172067901199e+01 2.693241994598765388e+01 2.693332754629629733e+01 2.694931327160493950e+01 2.696537037037036910e+01 2.699116319444444301e+01 2.700474054783950706e+01 2.702175877700616979e+01 2.704004629629629619e+01 2.704061149691358068e+01 2.702780719521605235e+01 2.703797453703703724e+01 2.704349971064814895e+01 2.706251302083333243e+01 2.709402633101851876e+01 2.709436101466049607e+01 2.709122251157407391e+01 2.711433159722222186e+01 2.715465567129629676e+01 2.717491849922839720e+01 2.720659336419753060e+01 2.724363088348765416e+01 2.726140914351852018e+01 2.729533275462963005e+01 2.729420910493827179e+01 2.730005015432098503e+01 2.732240258487654216e+01 2.733914400077160423e+01 2.735521026234567898e+01 2.736572868441358253e+01 2.736904513888888602e+01 2.740143663194444557e+01 2.740858748070987616e+01 2.738966097608024697e+01 2.736644965277777786e+01 2.736693913966049152e+01 2.734389515817901284e+01 2.732045621141975289e+01 2.730149546682098816e+01 2.725955054012345613e+01 2.720299189814814866e+01 2.714688657407407391e+01 2.710416377314814795e+01 2.702930169753086176e+01 2.694237461419752933e+01 2.686794463734567628e+01 2.681180700231481495e+01 2.674669608410493638e+01 2.670326003086419675e+01 2.665444347993827279e+01 2.663421537422839336e+01 2.660199508101851862e+01 2.627038290895061934e+01 2.625680410879629534e+01 2.623332754629629804e+01 2.620268518518518519e+01 2.616530478395061721e+01 2.615616849922839648e+01 2.613206163194444542e+01 2.612594039351851904e+01 2.614457754629629704e+01 2.615763744212963005e+01 2.615392168209876544e+01 2.613987991898148167e+01 2.613372395833333428e+01 2.615069637345678899e+01 2.618602044753086489e+01 2.624789014274691468e+01 2.632027102623456827e+01 2.638411024305555586e+01 2.641063705632716108e+01 2.644409095293209688e+01 2.646287905092592396e+01 2.648023341049382751e+01 2.650753182870370495e+01 2.651558834876543003e+01 2.652945891203703610e+01 2.655158661265432229e+01 2.656439525462963047e+01 2.658463541666666785e+01 2.661046923225308447e+01 2.661608314043209944e+01 2.666844762731481566e+01 2.667950376157407533e+01 2.668831163194444756e+01 2.667240210262345812e+01 2.668044270833333442e+01 2.668796248070987431e+01 2.670934847608024754e+01 2.672329234182098645e+01 2.673200327932098830e+01 2.673126687885802610e+01 2.673811053240740776e+01 2.672692853009259295e+01 2.671339409722222413e+01 2.671119936342592638e+01 2.671115740740740563e+01 2.670797646604938080e+01 2.671087480709876516e+01 2.671426022376543230e+01 2.716870273919753132e+01 3.044803771219135768e+01 3.095496961805555713e+01
2.104389708719135754e+01 2.096134789737654458e+01 2.083270061728395106e+01 2.062259693287036910e+01 2.055309076003086233e+01 2.062165123456790283e+01 2.064336323302469012e+01 2.065076388888888914e+01 2.063547598379629733e+01 2.066333670910493581e+01 2.067804301697530889e+01 2.064435329861111157e+01 2.065418981481481708e+01 2.064161795910493780e+01 2.063829041280864018e+01 2.060748842592592567e+01 2.055977527006172778e+01 2.053793451003086545e+01 2.053368344907407206e+01 2.046635657793209973e+01 2.043753038194444471e+01 2.037552517361111271e+01 2.037669656635802440e+01 2.036447434413580027e+01 2.038348524305555642e+01 2.036940441743827179e+01 2.037930700231481396e+01 2.037031057098765530e+01 2.028758198302469395e+01 2.024960021219135697e+01 2.027306857638888715e+01 2.010808256172839492e+01 2.001845582561728421e+01 1.995227189429012427e+01 1.991731385030864132e+01 1.996980902777777800e+01 2.000809992283950578e+01 2.001659722222222015e+01 2.012841820987654273e+01 2.013743537808642259e+01 2.013229793595678885e+01 1.987688657407407433e+01 1.955320698302469395e+01 1.920691502700617193e+01 1.883793065200617178e+01 1.861638551311728307e+01 1.836081934799382509e+01 1.886891637731481453e+01 1.911615981867283764e+01 1.922732253086419973e+01 1.937853443287037081e+01 1.949947145061728193e+01 1.957385513117284148e+01 1.967979552469135740e+01 1.974451822916666899e+01 1.989929591049382651e+01 1.996704668209876488e+01 2.005779224537037209e+01 2.012978009259258982e+01 2.019342592592592567e+01 2.020857301311728449e+01 2.029365354938271437e+01 2.046314911265432102e+01 2.042515335648148422e+01 2.033206790123456997e+01 2.029208381558641960e+01 2.031090133101851691e+01 2.033722704475308518e+01 2.031776427469135982e+01 2.029675491898148110e+01 2.034342640817901326e+01 2.033315104166666387e+01 2.028612172067901298e+01 2.031737991898148366e+01 2.034722559799382680e+01 2.036156153549382708e+01 2.034432532793209703e+01 2.034512393904320859e+01 2.035501060956789843e+01 2.036521701388889127e+01 2.039274402006172693e+01 2.040530430169753018e+01 2.045947193287036825e+01 2.042607494212963104e+01 2.045203655478394822e+01 2.043348234953703724e+01 2.042358410493827137e+01 2.041143759645061806e+01 2.039890962577160494e+01 2.044597752700617121e+01 2.041730565200617420e+01 2.038181809413580226e+01 2.038439525462962720e+01 2.040808497299382651e+01 2.029782166280864075e+01 2.020299189814814866e+01 2.021715567129629676e+01 2.026294753086419931e+01 2.028862991898148138e+01 2.027489535108024654e+01 2.030674141589506121e+01 2.032289737654321016e+01 2.038652247299382836e+01 2.042052806712962720e+01 2.045967640817901056e+01 2.047967351466049379e+01 2.053983555169753217e+01 2.053415316358024967e+01 2.056417341820987943e+01 2.057775993441357798e+01 2.054747733410493638e+01 2.061284866898148138e+01 2.064231867283950450e+01 2.060563609182098688e+01 2.061889515817901497e+01 2.064436294367283864e+01 2.058841194058642188e+01 2.059539014274691482e+01 2.059068817515432315e+01 2.060687692901234414e+01 2.059671248070987559e+01 2.061944974922839435e+01 2.063779224537037038e+01 2.059629388503086389e+01 2.051135320216049607e+01 2.042078414351852089e+01 2.042267698688271693e+01 2.036198447145061863e+01 2.031000723379629491e+01 2.024705825617284205e+01 2.021891396604938151e+01 2.011205005787036981e+01 2.006408613040123257e+01 2.002525752314814866e+01 1.999525077160494035e+01 1.995874469521605121e+01 1.995460262345678970e+01 1.990497540509259267e+01 1.984999758873456699e+01 1.979917631172839521e+01 1.975182581018518491e+01 1.975931712962962905e+01 1.973550974151234527e+01 1.959081790123456557e+01 1.951531684027777658e+01 1.937573350694444230e+01 1.929510416666666828e+01 1.926826147762345798e+01 1.930111159336419746e+01 1.928308738425926094e+01 1.934360532407407263e+01 1.936514419367284034e+01 1.937054928626543315e+01 1.941357349537036825e+01 1.946453944830246741e+01 1.973063609182098688e+01 1.967152343749999943e+01 1.969175491898148422e+01 1.975006751543210015e+01 1.986375675154321030e+01 1.994968894675925952e+01 2.002295428240740804e+01 2.012249324845679155e+01 2.018561246141975474e+01 2.025646846064815065e+01 2.028423804012345855e+01 2.037903597608024597e+01 2.043164255401234541e+01 2.046382474922839378e+01 2.051280623070987730e+01 2.053491464120370580e+01 2.056146122685185063e+01 2.061902681327160280e+01 2.059564284336419604e+01 2.063649884259259437e+01 2.066169511959876459e+01 2.065767216435185105e+01 2.064909818672839492e+01 2.067287037037037223e+01 2.065087721836419732e+01 2.067246865354938379e+01 2.066229986496913540e+01 2.066051359953703681e+01 2.066763503086419718e+01 2.066807388117283750e+01 2.066289641203703553e+01 2.070884018132716164e+01 2.060352478780864161e+01 2.056220534336419803e+01 2.061157069830246868e+01 2.060887249228395035e+01 2.058780140817901128e+01 2.053985291280864089e+01 2.053100356867283693e+01 2.050736689814814895e+01 2.052567804783950578e+01 2.050457754629629648e+01 2.051286795910493765e+01 2.050567853009259167e+01 2.057979600694444500e+01 2.056182484567901270e+01 2.057668547453703667e+01 2.056025366512345798e+01 2.053365210262345997e+01 2.055007957175925881e+01 2.050950569058642259e+01 2.053955488040123711e+01 2.052490596064814810e+01 2.053949701003086403e+01 2.055055652006172551e+01 2.057530815972222271e+01 2.054281201774691468e+01 2.057562692901234414e+01 2.061987895447531116e+01 2.055452642746913483e+01 2.061126977237654145e+01 2.059950520833333343e+01 2.063424045138888729e+01 2.056258294753086346e+01 2.053934702932098944e+01 2.052564959490740648e+01 2.053089699074074304e+01 2.057217833719135669e+01 2.060182581018518277e+01 2.061217930169753032e+01 2.058892264660493865e+01 2.058426986882716037e+01 2.058676745756172721e+01 2.063017023533950578e+01 2.057268180941358082e+01 2.055084972993827108e+01 2.056210985725308760e+01 2.054309895833333499e+01 2.057687307098765217e+01 2.052902681327160295e+01 2.050355565200617036e+01 2.047732253086419973e+01 2.049638985339506192e+01 2.044706500771604851e+01 2.044137538580246982e+01 2.041719473379629690e+01 2.039748119212962862e+01 2.042474633487654145e+01 2.040278308256172934e+01 2.036286458333333371e+01 2.034964940200617178e+01 2.036418595679012356e+01 2.010493730709876559e+01 2.003288387345678956e+01 2.005415895061728193e+01 2.008299864969135839e+01 2.005152150848765658e+01 2.007768856095679055e+01 2.007104166666666600e+01 2.003565393518518434e+01 2.002838300540123484e+01 2.000602382330247053e+01 1.999632860725308703e+01 1.999775655864197432e+01 1.995076919367284063e+01 1.995154176311728378e+01 1.993751929012345414e+01 1.990014756944444230e+01 1.985262683256172878e+01 1.989152922453703809e+01 1.984874565972222271e+01 1.984279706790123399e+01 1.985425925925925839e+01 1.985902584876543386e+01 1.985035927854938009e+01 1.983456741898148223e+01 1.984994791666666458e+01 1.984758439429012356e+01 1.985797260802469211e+01 1.981311921296296319e+01 1.981527826003086545e+01 1.980497106481481495e+01 1.980138599537037081e+01 1.969735725308641960e+01 1.969960165895061621e+01 1.962208140432098702e+01 1.964353539737654586e+01 1.968129388503086474e+01 1.968177179783950592e+01 1.969203559027777928e+01 1.969236786265431860e+01 1.971429639274691326e+01 1.977413290895061593e+01 1.974100453317901227e+01 1.979709972993827449e+01 1.976827112268518505e+01 1.976073591820987474e+01 1.973364342206790312e+01 1.974596547067901042e+01 1.977252652391975474e+01 1.978411410108024526e+01 1.979762393904320916e+01 1.980829475308641818e+01 1.979729600694444613e+01 1.979055941358024384e+01 1.980007716049382438e+01 1.981491560570987431e+01 1.983993441358024512e+01 1.983342158564814994e+01 1.990776234567901426e+01 1.987560812114197617e+01 1.992479648919752933e+01 1.993086757330246783e+01 1.995445023148148422e+01 1.984541811342592510e+01 1.982760850694444343e+01 1.977691068672839592e+01 1.981042582947530661e+01 1.981332031250000014e+01 1.983602189429012341e+01 1.983588011188271594e+01 1.983905237268518462e+01 1.978103684413580154e+01 1.983880063657407433e+01 1.985285011574073977e+01 1.983011766975308632e+01 1.986614293981481438e+01 1.989807918595679226e+01 1.979960985725308831e+01 1.978889901620370395e+01 1.978485532407407277e+01 1.976556809413580140e+01 1.974869598765432244e+01 1.978261718750000142e+01 1.976831356095678771e+01 1.977823688271605107e+01 1.978242766203703695e+01 1.979785493827160536e+01 1.980535252700617121e+01 1.981893807870370239e+01 1.984493441358024768e+01 1.982586805555555642e+01 1.982774884259259096e+01 1.984506076388889184e+01 1.983355999228395206e+01 1.978911217206790241e+01 1.979467399691358054e+01 1.980380642361111398e+01 1.981889708719135967e+01 1.977877748842592709e+01 1.980181230709876417e+01 1.977341194058642060e+01 1.975793161651234797e+01 1.976449459876543102e+01 1.981987364969135967e+01 1.979984905478395163e+01 1.979361545138888800e+01 1.975813946759259565e+01 1.976599922839506362e+01 1.976130835262345542e+01 1.975106385030864331e+01 1.974579234182098730e+01 1.975878134645061479e+01 1.974942322530864303e+01 1.972935522762345784e+01 1.971533179012345727e+01 1.966204909336419604e+01 1.965105951003086560e+01 1.967265239197530846e+01 1.966213686342592482e+01 1.967180603780864345e+01 1.963268759645061934e+01 1.962095823688271423e+01 1.964026620370370324e+01 1.960055169753086446e+01 1.951046392746913583e+01 1.940569540895061706e+01 1.939040364583333442e+01 1.939845389660493780e+01 1.938892650462963019e+01 1.941972318672839393e+01 1.939935812114197589e+01 1.937734133873456699e+01 1.934894483024691425e+01 1.936678722993827151e+01 1.936692177854938279e+01 1.934881896219135911e+01 1.939980854552468870e+01 1.941340904706790127e+01 1.938953559027777729e+01 1.942603877314815009e+01 1.937166859567901156e+01 1.938241512345679141e+01 1.938899353780864132e+01 1.941472415123456940e+01 1.940504099151234740e+01 1.943055314429012270e+01 1.945386863425925839e+01 1.942283564814814767e+01 1.941894290123456557e+01 1.943652102623456557e+01 1.947599633487654458e+01 1.949065538194444613e+01 1.951759355709876687e+01 1.949763792438271537e+01 1.948749035493827009e+01 1.937525414737654472e+01 1.934427758487654003e+01 1.938049238040123257e+01 1.942572000385802511e+01 1.945166232638888815e+01 1.947308159722222243e+01 1.946208429783950677e+01 1.950618489583333215e+01 1.951185233410494035e+01 1.950410879629629690e+01 1.947737123842592410e+01 1.948321084104938450e+01 1.945266444830247110e+01 1.941792920524691368e+01 1.941847993827160224e+01 1.939180748456790226e+01 1.941503954475308902e+01 1.941957224151234485e+01 1.938726900077160664e+01 1.941910590277777970e+01 1.939962673611110944e+01 1.940530912422839194e+01 1.944952208719135811e+01 1.944927372685185318e+01 1.941031201774691439e+01 1.940650945216049550e+01 1.943711226851851848e+01 1.943504677854938123e+01 1.939118007330246840e+01 1.944365162037037109e+01 1.940882378472221959e+01 1.933197627314814682e+01 1.931619261188271608e+01 1.935938994984568140e+01 1.936880401234568083e+01 1.936270543981481396e+01 1.936007185570987943e+01 1.939142119984568069e+01 1.941829234182098674e+01 1.937365162037037081e+01 1.942407841435185389e+01 1.945413387345679013e+01 1.942627218364197716e+01 1.944804108796296305e+01 1.944060088734567771e+01 1.945784577546296390e+01 1.949190297067901056e+01 1.942909673996913611e+01 1.944256703317901369e+01 1.939964891975308703e+01 1.940831163194444287e+01 1.936068817515431917e+01 1.935837046682098617e+01 1.929724103009259295e+01 1.925483458719135754e+01 1.922851851851851634e+01 1.918923273533950535e+01 1.917061776620370495e+01 1.913209104938271565e+01 1.907802854938271508e+01 1.909684702932098688e+01 1.897245273919753217e+01 1.890794270833333357e+01 1.886096354166666700e+01 1.887355806327160224e+01 1.885483940972222072e+01 1.886612172067901128e+01 1.885539255401234726e+01 1.883611448688271750e+01 1.884706741898148152e+01 1.887709828317901284e+01 1.887777199074074375e+01 1.882889756944444315e+01 1.881253520447531002e+01 1.879321614583333400e+01 1.879519868827160423e+01 1.878661699459876289e+01 1.881227864583333442e+01 1.878170524691357812e+01 1.879177662037037067e+01 1.879706500771604993e+01 1.878755015432098574e+01 1.875792486496913369e+01 1.878990451388888872e+01 1.875908227237654202e+01 1.876632619598765217e+01 1.875412760416666558e+01 1.879933256172839506e+01 1.882347849151234342e+01 1.881095052083333030e+01 1.882039882330246883e+01 1.877056712962962948e+01 1.873058449074073906e+01 1.868818624614197432e+01 1.866212528935185233e+01 1.872534770447531116e+01 1.873628472222222285e+01 1.872474729938271665e+01 1.872364342206790155e+01 1.872134693287037166e+01 1.870893807870370296e+01 1.872434751157407362e+01 1.877231674382716164e+01 1.879782166280864075e+01 1.880737702546296219e+01 1.883177083333333357e+01 1.885689043209876559e+01 1.883481770833333613e+01 1.884185956790123484e+01 1.884137586805555387e+01 1.885257860725308632e+01 1.884232397762345812e+01 1.883257764274691226e+01 1.882501929012345698e+01 1.888289737654320888e+01 1.888340229552468941e+01 1.890231915509259153e+01 1.894663724922839521e+01 1.892081404320987659e+01 1.890374999999999872e+01 1.889168402777777800e+01 1.888672935956790155e+01 1.891293547453703994e+01 1.881427276234568069e+01 1.880594859182098944e+01 1.878896990740740947e+01 1.887201967592592666e+01 1.885518566743827051e+01 1.887742380401234854e+01 1.887504726080246797e+01 1.885734809027777814e+01 1.889522762345679041e+01 1.891670138888888886e+01 1.894400945216049337e+01 1.896728973765431903e+01 1.901226948302469211e+01 1.900167775848765217e+01 1.899859809027777757e+01 1.898209297839506249e+01 1.892542679398148309e+01 1.865760995370370523e+01 1.838051311728395021e+01 1.820556664737654273e+01 1.821906442901234513e+01 1.900162615740740435e+01 2.021420862268518803e+01 2.035732349537036967e+01 2.053104021990740691e+01 2.062558159722222229e+01 2.068333767361111342e+01 2.075155092592592609e+01 2.090873312114197446e+01 2.096542775848765316e+01 2.163515625000000142e+01 2.158732060185185375e+01 2.160188946759259565e+01 2.163970389660493865e+01 2.168379002700617164e+01 2.171871238425925910e+01 2.173949701003086687e+01 2.179677999614197503e+01 2.181835792824074005e+01 2.187430025077160423e+01 2.190002121913580169e+01 2.191860966435185176e+01 2.190073109567901355e+01 2.193169270833333329e+01 2.196585069444444471e+01 2.195649739583333471e+01 2.200477816358024441e+01 2.202126446759259437e+01 2.203389274691357969e+01 2.203895447530864260e+01 2.209202401620370182e+01 2.208802083333333499e+01 2.207319444444444301e+01 2.209952449845679112e+01 2.211137201003086616e+01 2.213035156249999957e+01 2.210787471064814724e+01 2.209119984567901440e+01 2.207613908179012441e+01 2.212107976466049664e+01 2.210078462577160607e+01 2.191770109953703738e+01 2.191495225694444571e+01 2.182714650848765459e+01 2.184532841435185446e+01 2.182878665123456940e+01 2.185466483410493765e+01 2.184093074845678828e+01 2.180763985339506306e+01 2.178394338348765658e+01 2.173904899691358139e+01 2.177706404320987943e+01 2.177155140817901113e+01 2.175958960262345698e+01 2.173310233410493808e+01 2.170449411651234684e+01 2.171747154706790184e+01 2.172252411265432315e+01 2.171484616126543443e+01 2.173759162808642031e+01 2.174439332561728122e+01 2.173809317129629548e+01 2.173402536651234485e+01 2.174156346450617505e+01 2.172921440972222129e+01 2.172012345679012313e+01 2.170484423225308390e+01 2.171055844907407462e+01 2.170542197145061536e+01 2.171298466435185048e+01 2.175011622299382807e+01 2.176165943287037052e+01 2.170524305555555244e+01 2.167286651234568140e+01 2.167082609953703809e+01 2.170178192515432158e+01 2.171096161265432301e+01 2.171331500771604794e+01 2.175976466049382907e+01 2.175082802854938535e+01 2.175875626929012441e+01 2.176590567129629505e+01 2.181435136959876431e+01 2.184074893904320902e+01 2.184861111111111143e+01 2.185525607638889056e+01 2.187149450231481396e+01 2.186700665509259167e+01 2.184682484567901284e+01 2.184234953703703752e+01 2.184020351080247124e+01 2.184963348765432301e+01 2.185838204089506220e+01 2.185231819058641989e+01 2.182881221064814881e+01 2.184588734567901369e+01 2.184924816743827236e+01 2.182218364197530747e+01 2.183034047067901184e+01 2.182746768904321044e+01 2.183606819058642046e+01 2.184317322530864303e+01 2.185376736111111029e+01 2.180825906635802625e+01 2.177278115354938137e+01 2.177846981095678913e+01 2.178846064814814554e+01 2.182168113425926137e+01 2.179016589506172608e+01 2.181750241126542988e+01 2.179680362654320902e+01 2.180110773533950663e+01 2.179761332947531116e+01 2.177498263888888985e+01 2.180092013888889113e+01 2.178503134645061934e+01 2.175608796296296532e+01 2.175613281249999886e+01 2.173135175540123498e+01 2.169954427083333215e+01 2.167728105709876729e+01 2.169862991898148152e+01 2.165446132330247053e+01 2.163709297839506362e+01 2.158363377700617036e+01 2.157151475694444542e+01 2.156517409336419533e+01 2.152094859182098574e+01 2.152078559027777871e+01 2.147714699074073863e+01 2.144882185570987687e+01 2.143473717206790141e+01 2.142413917824073977e+01 2.128758150077160494e+01 2.125579330632715980e+01 2.119699990354938279e+01 2.119653356481481410e+01 2.120087191358024725e+01 2.121536844135802369e+01 2.116066792052469125e+01 2.114112606095678970e+01 2.111997781635802340e+01 2.109904610339506092e+01 2.109736448688271437e+01 2.105635754243827051e+01 2.105921489197530860e+01 2.103520592206790241e+01 2.102173948688271565e+01 2.103433352623456898e+01 2.099480275848765487e+01 2.100796730324073991e+01 2.097905526620370509e+01 2.099038869598765444e+01 2.098318094135802170e+01 2.100312934027777700e+01 2.100709538966049550e+01 2.101450424382716164e+01 2.100850549768518505e+01 2.100486352237654586e+01 2.100808400848765345e+01 2.100637442129629662e+01 2.099684751157407447e+01 2.099065923996913696e+01 2.106091965663580012e+01 2.099356819058641932e+01 2.094673225308642017e+01 2.097159191743827122e+01 2.099870900848765487e+01 2.101759018132715795e+01 2.101431954089506249e+01 2.103880931712962976e+01 2.101361207561728506e+01 2.106272135416666558e+01 2.105534384645061863e+01 2.103816647376543258e+01 2.106052903163580226e+01 2.105501253858024668e+01 2.107519386574074005e+01 2.110604745370370239e+01 2.112915895061728122e+01 2.112270543981481197e+01 2.112965470679012370e+01 2.113411795910493751e+01 2.116075472608024910e+01 2.116051456404320774e+01 2.114170910493827193e+01 2.116431664737654472e+01 2.119622154706789985e+01 2.120360628858024654e+01 2.118962239583333229e+01 2.117180555555555443e+01 2.113880690586419675e+01 2.114453366126543443e+01 2.117109809027777700e+01 2.120645158179012313e+01 2.116658854166666970e+01 2.110983892746913426e+01 2.108281249999999929e+01 2.112416087962963118e+01 2.114449749228395348e+01 2.113993923611111114e+01 2.114826726466049323e+01 2.115215808256172991e+01 2.117250289351851578e+01 2.120600646219135754e+01 2.118905574845679141e+01 2.116987413194444301e+01 2.116038966049382708e+01 2.116019531250000085e+01 2.116897231867283935e+01 2.117214795524691340e+01 2.114056809413580140e+01 2.114261911651234627e+01 2.115885802469135868e+01 2.109089891975308717e+01 2.108301118827160536e+01 2.108799430941358111e+01 2.108249662422839776e+01 2.109069396219135584e+01 2.108636429398148238e+01 2.104199074074074005e+01 2.105976803626543159e+01 2.101403645833333300e+01 2.101338638117283963e+01 2.099500144675926094e+01 2.084493489583333314e+01 2.070318528163580396e+01 2.071218557098765345e+01 2.072927276234567628e+01 2.073171633873456798e+01 2.075924382716049266e+01 2.074044174382715866e+01 2.073924575617284205e+01 2.073628954475308461e+01 2.074547984182098759e+01 2.069180025077160678e+01 2.071569685570987573e+01 2.073841724537036768e+01 2.077949218750000071e+01 2.076142361111111256e+01 2.072628665123456670e+01 2.073237702546296291e+01 2.073741126543209745e+01 2.075390817901234541e+01 2.078139998070987815e+01 2.080620659722222143e+01 2.079611304012345485e+01 2.082358410493826995e+01 2.079413917824074076e+01 2.079410493827160522e+01 2.078582127700617121e+01 2.076921248070987502e+01 2.078146894290123470e+01 2.078685715663580069e+01 2.077883825231481651e+01 2.078159047067901355e+01 2.072979504243827265e+01 2.067433352623456955e+01 2.071433690200617050e+01 2.073477044753086318e+01 2.075913001543209901e+01 2.073569926697530974e+01 2.075674720293210029e+01 2.077413628472222129e+01 2.080010898919753259e+01 2.080716531635802369e+01 2.082721113040123484e+01 2.084002170138888843e+01 2.086183979552469125e+01 2.089633198302469097e+01 2.088413532021604979e+01 2.089935233410493964e+01 2.091705680941358025e+01 2.091000578703703994e+01 2.090126494984567884e+01 2.089939814814814767e+01 2.090526909722222015e+01 2.089893663194444429e+01 2.092614486882715852e+01 2.092133680555555486e+01 2.095391010802469012e+01 2.096049720293209973e+01 2.094937934027777970e+01 2.094243778935185318e+01 2.098554060570987545e+01 2.099200713734568069e+01 2.115168258101851961e+01 2.112223042052469069e+01 2.105145061728395106e+01 2.108405623070987644e+01 2.111144868827160437e+01 2.112491174768518221e+01 2.111797067901234470e+01 2.113676022376543173e+01 2.115277729552468955e+01 2.118569203317901284e+01 2.113647087191358054e+01 2.115404272762345528e+01 2.117855999228395092e+01 2.119858989197530974e+01 2.115764708719135712e+01 2.117946566358024896e+01 2.116797501929012526e+01 2.113094666280864331e+01 2.112296730324074190e+01 2.111722656250000085e+01 2.111176697530864033e+01 2.106407841435185446e+01 2.107553819444444443e+01 2.103570939429012299e+01 2.103626012731481509e+01 2.097771412037037209e+01 2.098611979166666686e+01 2.095146412037037109e+01 2.091343991126543145e+01 2.088269772376543187e+01 2.088474778163580226e+01 2.067178288966049493e+01 2.060141444830246726e+01 2.057346884645061991e+01 2.062253231095678885e+01 2.063903260030864217e+01 2.058437837577160678e+01 2.059954571759259423e+01 2.059475549768518476e+01 2.055595148533950578e+01 2.052934702932098432e+01 2.054466579861111342e+01 2.056825183256172807e+01 2.059082272376543443e+01 2.059713541666666714e+01 2.058547791280864203e+01 2.062091290509259167e+01 2.063271556712962962e+01 2.063018180941358182e+01 2.067585648148148181e+01 2.068237750771605121e+01 2.069037760416666671e+01 2.071299961419753188e+01 2.069166570216049550e+01 2.069088879243827250e+01 2.070568094135802539e+01 2.070779369212963061e+01 2.071793885030864146e+01 2.075823206018518619e+01 2.078319444444444386e+01 2.079935667438271807e+01 2.083640866126543045e+01 2.081892071759259366e+01 2.076290702160493851e+01 2.082608892746913654e+01 2.084047309027777928e+01 2.086202739197530676e+01 2.083118393132716051e+01 2.083432436342592453e+01 2.082518180941357855e+01 2.081518711419753132e+01 2.082037471064814937e+01 2.085043354552469097e+01 2.083935860339505908e+01 2.084061439043209774e+01 2.084179349922839464e+01 2.081532503858024441e+01 2.081147762345678842e+01 2.079632282021604794e+01 2.102517602237654515e+01 2.282068238811728378e+01 2.288160493827160735e+01
