2.021603298611111086e+02 2.021531177662037067e+02 2.021428043016975096e+02 2.020931240354938154e+02 2.019337302276234709e+02 2.018396079282407243e+02 2.018092737268518420e+02 2.017996170910493845e+02 2.017899025848765291e+02 2.017700072337962922e+02 2.017410869984567796e+02 2.016969912229938302e+02 2.016841623263889005e+02 2.016859432870370483e+02 2.017124402006172943e+02 2.017566767939814838e+02 2.016773924575617229e+02 2.015090528549382611e+02 2.013236820023148255e+02 2.011196522955247019e+02 2.008487172067901270e+02 2.004803530092592609e+02 2.001107031250000148e+02 1.997567013888888710e+02 2.004084302662036805e+02 2.008083593750000091e+02 2.009719333526234664e+02 2.010659953703703593e+02 2.011652295524691283e+02 2.012475983796296362e+02 2.013152681327160565e+02 2.015327850115740773e+02 2.015232031250000091e+02 2.015306177662037044e+02 2.015670003858024586e+02 2.015985329861111097e+02 2.016523114390432170e+02 2.017134182098765507e+02 2.017653877314814679e+02 2.018428925540123373e+02 2.019157407407407447e+02 2.019924430941357798e+02 2.020494579475308683e+02 2.020411279899691408e+02 2.019592901234567819e+02 2.018547564621913750e+02 2.017789800347222240e+02 2.017214674961419973e+02 2.016866642554012117e+02 2.016613319830246951e+02 2.016599469521604817e+02 2.016610681905864055e+02 2.016570760995370222e+02 2.016524001736111131e+02 2.016588411458333212e+02 2.016728052662037101e+02 2.016945341435184957e+02 2.017330502507716119e+02 2.017752671682098651e+02 2.018285170717592507e+02 2.018717153742283870e+02 2.019249049961419757e+02 2.020919883294752992e+02 2.021093643904321198e+02 2.021243923611111200e+02 2.020740813078703582e+02 2.019945172646604874e+02 2.019397255979938279e+02 2.019042722800926128e+02 2.018724392361111200e+02 2.018585734953703650e+02 2.018598765432098787e+02 2.018836680169752924e+02 2.019039154128086295e+02 2.018920346257716005e+02 2.018973341049382668e+02 2.019098172260802357e+02 2.019340740740740614e+02 2.019731433256172863e+02 2.020028665123456619e+02 2.020536357060185253e+02 2.021056032986111290e+02 2.021516131365740705e+02 2.022219680748456767e+02 2.022860291280864260e+02 2.023178747106481410e+02 2.022675583526234391e+02 2.021939284336419860e+02 2.021268663194444457e+02 2.020888069058642031e+02 2.020576051311728349e+02 2.020141710069444514e+02 2.020140803433641850e+02 2.019174213927469168e+02 2.019356413966049502e+02 2.019649455054012321e+02 2.019726003086419723e+02 2.019950781250000205e+02 2.020133907214506053e+02 2.020489510995370495e+02 2.020960831404321141e+02 2.021321899112654421e+02 2.021835566165123623e+02 2.022257933063271764e+02 2.022719478202160417e+02 2.023210633680555475e+02 2.023685310570987781e+02 2.023793508873456801e+02 2.023213242669753242e+02 2.022196392746913602e+02 2.021437982253086432e+02 2.020875472608024950e+02 2.020204267939814997e+02 2.019839964313271707e+02 2.019595191936728327e+02 2.019465234374999909e+02 2.019348326581790047e+02 2.019176316550925776e+02 2.018864592978395081e+02 2.018942144097222240e+02 2.018932966820987644e+02 2.019074546682098799e+02 2.019149975887345647e+02 2.019371947337963036e+02 2.018849421296296214e+02 2.019295143711419769e+02 2.020012147955247030e+02 2.020734809027777885e+02 2.021309760802469100e+02 2.021512500000000045e+02 2.020941131365740659e+02 2.019771932870370392e+02 2.018725265239197597e+02 2.017971947337962888e+02 2.017420698302469191e+02 2.016890190972222285e+02 2.016400761959876604e+02 2.016230608603395069e+02 2.016224686535493902e+02 2.016196199845678905e+02 2.015975940393518329e+02 2.015878858024691169e+02 2.015938421103395228e+02 2.016206312692901292e+02 2.016572569444444412e+02 2.017040118634259329e+02 2.017540870949074190e+02 2.018086284722222388e+02 2.018649879436728440e+02 2.019237085262345488e+02 2.019712297453703798e+02 2.020314949845678996e+02 2.020335918209876525e+02 2.019650144675925958e+02 2.018656997492283836e+02 2.016117717978395092e+02 2.016161704282407356e+02 2.016438261959876570e+02 2.016444545717592405e+02 2.016430073302469168e+02 2.016480348186728406e+02 2.016547255979938313e+02 2.016336892361111097e+02 2.016209963348765655e+02 2.015919748263889062e+02 2.015915118634259500e+02 2.015967327353394865e+02 2.016036805555555702e+02 2.016179407793209748e+02 2.016389781057098674e+02 2.016764703896604942e+02 2.017221551890432067e+02 2.017697053433641941e+02 2.017281616512345579e+02 2.016212625385802255e+02 2.015053915895061607e+02 2.014217221257715948e+02 2.013590301890432102e+02 2.013134722222222024e+02 2.012838300540123555e+02 2.012839110725308558e+02 2.012857749807099026e+02 2.012864674961419666e+02 2.012804200424382657e+02 2.012831891396604931e+02 2.012794714506172795e+02 2.011819102044753151e+02 2.012237017746913637e+02 2.012920910493827193e+02 2.013490200617283961e+02 2.014147598379629471e+02 2.014655984760802312e+02 2.014953732638888653e+02 2.014610841049382657e+02 2.013482581018518545e+02 2.012295244984567830e+02 2.011309852430555338e+02 2.010630314429012344e+02 2.010034596836419780e+02 2.009732730516975323e+02 2.009532084297839560e+02 2.009536323302469043e+02 2.009241444830246905e+02 2.008849720293210055e+02 2.008521064814814849e+02 2.008198611111111234e+02 2.008144502314814872e+02 2.008273765432098799e+02 2.008695679012345749e+02 2.008979152199074178e+02 2.009649522569444571e+02 2.010131404320987656e+02 2.010396990740740648e+02 2.009327155671296339e+02 2.008091734182098662e+02 2.006950761959876388e+02 2.003588927469135683e+02 2.003496040702160315e+02 2.003190673225308558e+02 2.003046759259259204e+02 2.002961096643518601e+02 2.002816497878086466e+02 2.002710894097222081e+02 2.002521383101851882e+02 2.002300212191358071e+02 2.002224701003086409e+02 2.002384780092592678e+02 2.002845760995370483e+02 2.003483473186728645e+02 2.004070519868827205e+02 2.004800675154321254e+02 2.005366917438271628e+02 2.005595105131172886e+02 2.005001991705246951e+02 2.003761766975308660e+02 2.002571744791666788e+02 2.001568971836419735e+02 2.000876567322530946e+02 2.000381105324073872e+02 2.009798963155864158e+02 2.013410315393518601e+02 2.014936569251543119e+02 2.015767293595679064e+02 2.016195027970678950e+02 2.016636414930555645e+02 2.017094063464506064e+02 2.017638112461419553e+02 2.018222964891975266e+02 2.018581462191357900e+02 2.019354147376543267e+02 2.019937934027777828e+02 2.020611525848765382e+02 2.021163334297839640e+02 2.020894873649691306e+02 2.019922072723765609e+02 2.018805787037036907e+02 2.018003477044753140e+02 2.017632122878086420e+02 2.017424300733024722e+02 2.017234293016975357e+02 2.017282547260802517e+02 2.017353284143518692e+02 2.017161005015432238e+02 2.017199980709876570e+02 2.017340885416666652e+02 2.017677445023148266e+02 2.018198263888888846e+02 2.018763097993827103e+02 2.019186752507716278e+02 2.019798948688271594e+02 2.020325843942900974e+02 2.020815427276234573e+02 2.020778062307098821e+02 2.019946561535493856e+02 2.018810792824073985e+02 2.017899570794753288e+02 2.017344145447530650e+02 2.016855179398148152e+02 2.014939231288580288e+02 2.015236559606481421e+02 2.015683772183641906e+02 2.015759206211419610e+02 2.015834027777777919e+02 2.016075458140432204e+02 2.016374045138888960e+02 2.016931114969135876e+02 2.017580290316358003e+02 2.018235652970679155e+02 2.019037369791666663e+02 2.020082494212962843e+02 2.021034891010802426e+02 2.021745679012345533e+02 2.021570746527777658e+02 2.020793451003086432e+02 2.020153862847222115e+02 2.019774840856481433e+02 2.019673374807098867e+02 2.019648451967592564e+02 2.019744970100308592e+02 2.020096918402777817e+02 2.020475043402777828e+02 2.020809784915123259e+02 2.021098596643518590e+02 2.021421590470679064e+02 2.022557499035494004e+02 2.023333699845678950e+02 2.024136959876543074e+02 2.024894666280864328e+02 2.026545625964506314e+02 2.027213396990740648e+02 2.028050458140432113e+02 2.027986521026234641e+02 2.027000593171296146e+02 2.025853597608024756e+02 2.025052059220679155e+02 2.024583733603395217e+02 2.024084963348765598e+02 2.023532759452160406e+02 2.023301967592592518e+02 2.023227430555555486e+02 2.023244579475308740e+02 2.023249455054012174e+02 2.023330357831790138e+02 2.023550091628086420e+02 2.023780917245370290e+02 2.024278761574074110e+02 2.024825679976851802e+02 2.025511660879629687e+02 2.026229451195987679e+02 2.026924016203703900e+02 2.027699720293209964e+02 2.028545100308641906e+02 2.029035546874999909e+02 2.028698403742284029e+02 2.027801244212962786e+02 2.026830825617283836e+02 2.026137234760802528e+02 2.025733974729938041e+02 2.025274575617283972e+02 2.023319000771604976e+02 2.023496841242283892e+02 2.023627059220678746e+02 2.023571932870370347e+02 2.023606886574074224e+02 2.023600327932098821e+02 2.023757267554012174e+02 2.024127464313271503e+02 2.024580193865740796e+02 2.025122169174382805e+02 2.025589057677469214e+02 2.026054152199074281e+02 2.026633039158950567e+02 2.027285165895061709e+02 2.027775072337963138e+02 2.027815036651234664e+02 2.026802358217592541e+02 2.025437692901234641e+02 2.024352256944444548e+02 2.023440972222222172e+02 2.022598075810185208e+02 2.021872357253086250e+02 2.021379103973765439e+02 2.020975660686728475e+02 2.020612712191357900e+02 2.020408608217592814e+02 2.020555367476851814e+02 2.020643282214506371e+02 2.020833362268518272e+02 2.021173418209876331e+02 2.021702589699074224e+02 2.022234673996913443e+02 2.022900520833333360e+02 2.024177898341049229e+02 2.025413811728395217e+02 2.026471315586419735e+02 2.026674440586419621e+02 2.025981356095678905e+02 2.025084958526234402e+02 2.024536130401234573e+02 2.024189597800925924e+02 2.024055184220678996e+02 2.023896330054012367e+02 2.023918446180555577e+02 2.023953800154320959e+02 2.023983381558641952e+02 2.023919246720679155e+02 2.024115788966049365e+02 2.024431240354938097e+02 2.024736357060185128e+02 2.025058974729938086e+02 2.025562364969135842e+02 2.026056192129629778e+02 2.026580536265431931e+02 2.027136385995370347e+02 2.027861791087962899e+02 2.028528544560185196e+02 2.027606534529321038e+02 2.026512080439814838e+02 2.025638604359567978e+02 2.024782142168209873e+02 2.022187022569444252e+02 2.022086115933641963e+02 2.022351914544753129e+02 2.022743913966049547e+02 2.022960961612654103e+02 2.023127961033950726e+02 2.023184013310185208e+02 2.023446932870370176e+02 2.023858854166666674e+02 2.024418190586419826e+02 2.024962360146604965e+02 2.025448345871913602e+02 2.026044825424382907e+02 2.026693277391975414e+02 2.027325945216049377e+02 2.028057609953703491e+02 2.028835243055555395e+02 2.029128274498456790e+02 2.028344743441357991e+02 2.027326032021605045e+02 2.026201162229938291e+02 2.025635373263888823e+02 2.025105999228395035e+02 2.024658097029321198e+02 2.024518711419753174e+02 2.024492390046296464e+02 2.024383521412037226e+02 2.024374874614197495e+02 2.024283318865740853e+02 2.024262837577160496e+02 2.024424382716049422e+02 2.023567038001543210e+02 2.024008830054012265e+02 2.024668103780864215e+02 2.025479639274691408e+02 2.026237321566358105e+02 2.026978988233024950e+02 2.027770351080246769e+02 2.028608357445987735e+02 2.029300511188271514e+02 2.029152700617283926e+02 2.028255275848765393e+02 2.027429325810185219e+02 2.026806785300925924e+02 2.026634061535493743e+02 2.026547024498456722e+02 2.026504976851852007e+02 2.026826432291666720e+02 2.027077266589506053e+02 2.027367626350308569e+02 2.027456746720679064e+02 2.027508670910494004e+02 2.027814187885802255e+02 2.028298977623456665e+02 2.028856520061728475e+02 2.029433892746913557e+02 2.030171305941358071e+02 2.030839988425925924e+02 2.031597907021604783e+02 2.032465051118827262e+02 2.033055830439814997e+02 2.033078867669753151e+02 2.030505251736111347e+02 2.030188141396604919e+02 2.029909365354938302e+02 2.029690875771605079e+02 2.029592602237654262e+02 2.029642259837962968e+02 2.029755135995370381e+02 2.029956066743827137e+02 2.029985730131172943e+02 2.029967433449074008e+02 2.030031934799382611e+02 2.030426427469135717e+02 2.030846971450617389e+02 2.031415547839506246e+02 2.032022067901234550e+02 2.032515586419752935e+02 2.033180946180555395e+02 2.034013695987654273e+02 2.034664371141975323e+02 2.034858405671296282e+02 2.034030512152777703e+02 2.032834529320987826e+02 2.031975400270061698e+02 2.031341406250000148e+02 2.030801085069444412e+02 2.030073987268518465e+02 2.030092915702160496e+02 2.030031394675926038e+02 2.030006823881172693e+02 2.029850313464506257e+02 2.028392597415123362e+02 2.028833892746913534e+02 2.029408661265431988e+02 2.030142409336419860e+02 2.030889289158950817e+02 2.031648408564815043e+02 2.032346301118827228e+02 2.033043841628086454e+02 2.033491613618827216e+02 2.033432778742283915e+02 2.032335696373456813e+02 2.030814544753086466e+02 2.029668214699073872e+02 2.028936651234567705e+02 2.028257576195987610e+02 2.027730049189814849e+02 2.027594598765432181e+02 2.027394005594135820e+02 2.027418132716049399e+02 2.027236564429012162e+02 2.027086000192901167e+02 2.027054258294753026e+02 2.027190258487654262e+02 2.027430454282407482e+02 2.027846243248456801e+02 2.028370693479938041e+02 2.028757696759259090e+02 2.029369642168209964e+02 2.029918243634259341e+02 2.030412012924382736e+02 2.030752155671296464e+02 2.028637717013888846e+02 2.027984481095678859e+02 2.027140321180555702e+02 2.026408588927469054e+02 2.025775274884259147e+02 2.025200535300925822e+02 2.024890340470678893e+02 2.024781341628086295e+02 2.024725323109567796e+02 2.024456139081790127e+02 2.024339139660493743e+02 2.024247897376543222e+02 2.024367148919752992e+02 2.024716647376543222e+02 2.025178395061728338e+02 2.025742346643518488e+02 2.026274276620370358e+02 2.026911911651234561e+02 2.027574807098765461e+02 2.028110363618827137e+02 2.028421330054012230e+02 2.027599189814814622e+02 2.026399850501543369e+02 2.025328674768518624e+02 2.024685464891975357e+02 2.024403891782407356e+02 2.023989564043209839e+02 2.023837991898147948e+02 2.023969743441357991e+02 2.024007966820987576e+02 2.024012639853395115e+02 2.022251287615740694e+02 2.022619367283950567e+02 2.023200496720679098e+02 2.023868706597222342e+02 2.024518012152777828e+02 2.025111805555555691e+02 2.025775434027777919e+02 2.026488642939814895e+02 2.027224864969136036e+02 2.027345703125000114e+02 2.026713450038580220e+02 2.025429962384259284e+02 2.024483965084876331e+02 2.023827420910493800e+02 2.023341483410493993e+02 2.023077136381172636e+02 2.022947598379629710e+02 2.023087075617283972e+02 2.023142693865740966e+02 2.023217607060185230e+02 2.023122323495370267e+02 2.023255830439814815e+02 2.023412668788580220e+02 2.023774864969135763e+02 2.024877589699074178e+02 2.025392737268518601e+02 2.026104991319444366e+02 2.026780145640432238e+02 2.027335792824074190e+02 2.026848152970678996e+02 2.023697323495370313e+02 2.023391483410493947e+02 2.023004817708333576e+02 2.022603477044752935e+02 2.022193248456790116e+02 2.021798423032407186e+02 2.021701244212962933e+02 2.021643209876543210e+02 2.021567645640432147e+02 2.021390779320987576e+02 2.021424074074074042e+02 2.021641010802468941e+02 2.021841599151234448e+02 2.022255642361110972e+02 2.022640562307098833e+02 2.023143359375000045e+02 2.023734538966049286e+02 2.024389650848765427e+02 2.024989655671296305e+02 2.025363594714505950e+02 2.024824541859567830e+02 2.023627030285493902e+02 2.022492144097222138e+02 2.021654021990740659e+02 2.020885209297839538e+02 2.020211496913580334e+02 2.019862842399691374e+02 2.019761559606481569e+02 2.019784770447531059e+02 2.019732831790123555e+02 2.019699754050925833e+02 2.018284934413580345e+02 2.018761410108024847e+02 2.019447950424382725e+02 2.020114347029320925e+02 2.020826856674382555e+02 2.021599315200617184e+02 2.022223977623456790e+02 2.023028255208333519e+02 2.023862456597222206e+02 2.024803891782407277e+02 2.025371084104938291e+02 2.025247526041666788e+02 2.024313739390431977e+02 2.023302903163580027e+02 2.022618436535493629e+02 2.022163117283950555e+02 2.021718586033950658e+02 2.021585754243826898e+02 2.021619873649691215e+02 2.021807277199074235e+02 2.021831944444444389e+02 2.021949156057098662e+02 2.022160373263888857e+02 2.022572212577160542e+02 2.022841165123456619e+02 2.023372275270061778e+02 2.023899850501543369e+02 2.024561361882715858e+02 2.025292780671296100e+02 2.026020066550925947e+02 2.026790364583333428e+02 2.028038845486111086e+02 2.027761834490740966e+02 2.026930825617284029e+02 2.026081592399691260e+02 2.025536429398148357e+02 2.025087432484567955e+02 2.024868586033950635e+02 2.024721865354938188e+02 2.024828235918209884e+02 2.024950945216049547e+02 2.025022439236111040e+02 2.025030280671296339e+02 2.025322574266975266e+02 2.025750737847222069e+02 2.026318653549382702e+02 2.026912051504629630e+02 2.027652729552468998e+02 2.028331211419753117e+02 2.028894945987654523e+02 2.029625462962962956e+02 2.030136699459876581e+02 2.029828727816357912e+02 2.028840972222222376e+02 2.026948924575617355e+02 2.026435392554012367e+02 2.026206872106481569e+02 2.026162427662036976e+02 2.026330603780864124e+02 2.026566893325617400e+02 2.026673996913580140e+02 2.024985570987654455e+02 2.025249782986111029e+02 2.025848244598765291e+02 2.026491126543209873e+02 2.027046407214506303e+02 2.027658762538580390e+02 2.028346913580246849e+02 2.029074715470678996e+02 2.029584268904320936e+02 2.029427174961419666e+02 2.028628573495370233e+02 2.027593629436728406e+02 2.026895524691358048e+02 2.026549681712963036e+02 2.026409717399691317e+02 2.026441025270061687e+02 2.026820442708333303e+02 2.027097419945987724e+02 2.027153134645061812e+02 2.027166956018518533e+02 2.027219550540123407e+02 2.027502107445987747e+02 2.028014260223765461e+02 2.028619859182098821e+02 2.029181785300926038e+02 2.029755299961419723e+02 2.030489322916666595e+02 2.030940716628086307e+02 2.030724864969135979e+02 2.029708232060185367e+02 2.028385841049382634e+02 2.025380844907407436e+02 2.025463777970678905e+02 2.025512229938271673e+02 2.025706442901234539e+02 2.026041092785493731e+02 2.026366435185185253e+02 2.026596711033950555e+02 2.026875805362654148e+02 2.027158347800925924e+02 2.027582643711419621e+02 2.028120066550926026e+02 2.028703491512345636e+02 2.029395568094135740e+02 2.030140972222222331e+02 2.030872145061728418e+02 2.031735011574074008e+02 2.032574450231481364e+02 2.032918446180555634e+02 2.032322714120370222e+02 2.031048206018518272e+02 2.029878423996913455e+02 2.029042679398148152e+02 2.028469801311728418e+02 2.027946518132716278e+02 2.027629132908950567e+02 2.027697198109567864e+02 2.027795814043209646e+02 2.027864361496913546e+02 2.027818417245370313e+02 2.027862143132715858e+02 2.028105603780864215e+02 2.027833622685185162e+02 2.028436766975308672e+02 2.029305782214506166e+02 2.030123553240740648e+02 2.031020500578703718e+02 2.031735643325617389e+02 2.032494854359567853e+02 2.032867578124999852e+02 2.032145138888888880e+02 2.030766792052469043e+02 2.029317081404320788e+02 2.028186347415123407e+02 2.027452237654321152e+02 2.026900279706790116e+02 2.026410937500000102e+02 2.026132113233024654e+02 2.026187008101851745e+02 2.026209910300925969e+02 2.026059915123456676e+02 2.026064351851852052e+02 2.026214168595679155e+02 2.026592674575617252e+02 2.027002160493827319e+02 2.028207339891975209e+02 2.028837953317901395e+02 2.029560325038580402e+02 2.030350376157407482e+02 2.031128501157407413e+02 2.031344203317901247e+02 2.030632527970678893e+02 2.027494521604938313e+02 2.027230020254629608e+02 2.027152054398148096e+02 2.027126200810185424e+02 2.026864602623456619e+02 2.026688744212962945e+02 2.026836144868827319e+02 2.027053448109568023e+02 2.027254711612654319e+02 2.027365933641975460e+02 2.027550390625000034e+02 2.027922391010802414e+02 2.028381664737654262e+02 2.028928057484567660e+02 2.029539448302469111e+02 2.030226909722222217e+02 2.031014303626543267e+02 2.031748683449074235e+02 2.032501384066358128e+02 2.033247275270061607e+02 2.033182508680555429e+02 2.032386246141975050e+02 2.031422998649691465e+02 2.030711574074074122e+02 2.030105521797839572e+02 2.029733150077160531e+02 2.029653496334876479e+02 2.029586173804012219e+02 2.029802946566358059e+02 2.029874266975308785e+02 2.030064694251543074e+02 2.029028361304012265e+02 2.029328708526234664e+02 2.030116107253086284e+02 2.030873172260802448e+02 2.031563179976851643e+02 2.032349787808641963e+02 2.033154933449074235e+02 2.033817631172839526e+02 2.034523471257715812e+02 2.035249204282407334e+02 2.035678086419753186e+02 2.035355073302469293e+02 2.034376466049382657e+02 2.033477459490740671e+02 2.032688073881172954e+02 2.032018696952160326e+02 2.031548181905864112e+02 2.031289674961419678e+02 2.031320346257715812e+02 2.031211882716049502e+02 2.031214308449074224e+02 2.031192727623456733e+02 2.031135300925925833e+02 2.031371021412037123e+02 2.031616521990740694e+02 2.031933926504629824e+02 2.032397863618827216e+02 2.032833617862654307e+02 2.033374701003086500e+02 2.033780984760802255e+02 2.034144241898148096e+02 2.032393499228395228e+02 2.031777208719135785e+02 2.030898321759259204e+02 2.030061540316358162e+02 2.029531515239197574e+02 2.029077821180555645e+02 2.028893147183642043e+02 2.028915899884259204e+02 2.028990383873456835e+02 2.028877174961419598e+02 2.028752565586419507e+02 2.028684418402777681e+02 2.028879571759259193e+02 2.029111197916666640e+02 2.029486342592592507e+02 2.029847246334876445e+02 2.030411241319444571e+02 2.030816579861111109e+02 2.031352334104938393e+02 2.031810763888888971e+02 2.031557658179012265e+02 2.030443484760802448e+02 2.027549874614197449e+02 2.026668624614197540e+02 2.025901374421296453e+02 2.025220027970678984e+02 2.024956061921296282e+02 2.024835575810185162e+02 2.024667409336419723e+02 2.024481843171296305e+02 2.022170553626543210e+02 2.022308309220678950e+02 2.022869150270061596e+02 2.023550318287037157e+02 2.024181467013889062e+02 2.024848914930555566e+02 2.025479933449074110e+02 2.026061487268518420e+02 2.026726244212963195e+02 2.027115629822530707e+02 2.026637996720679098e+02 2.025167727623456813e+02 2.023576919367283722e+02 2.022320008680555645e+02 2.021408820408950646e+02 2.020608068094135774e+02 2.019820929783950874e+02 2.019475289351851757e+02 2.019191922260802414e+02 2.018955627893518567e+02 2.018744145447530798e+02 2.018673693094135899e+02 2.018692312885802664e+02 2.018839728009259034e+02 2.019023384452160315e+02 2.019546956983024586e+02 2.019908492476851904e+02 2.020409186921296509e+02 2.021006028163580197e+02
6.945119598765431945e+00 6.949663869598765586e+00 6.966139564043209553e+00 6.970399787808641889e+00 6.868198784722222783e+00 6.789525945216049685e+00 6.722347125771605647e+00 6.681389853395062417e+00 6.648323206018518228e+00 6.627437789351851904e+00 6.605028935185185190e+00 6.583390239197530747e+00 6.567554012345678593e+00 6.584454571759259522e+00 6.614973476080247217e+00 6.653883584104938187e+00 6.531136670524691823e+00 6.281402874228394495e+00 5.975466820987654692e+00 5.648432195216050111e+00 5.330497685185185297e+00 4.949165702160493119e+00 4.592849633487654515e+00 4.285039544753086460e+00 5.111188271604937938e+00 5.686029610339505602e+00 5.800095003858024789e+00 5.870861786265431981e+00 5.945094039351852544e+00 6.017065007716049685e+00 6.092962480709876338e+00 6.179442033179012306e+00 6.190848283179012590e+00 6.294508584104938187e+00 6.416548514660493474e+00 6.488433159722221788e+00 6.570083429783950990e+00 6.656681616512345023e+00 6.741803626543210193e+00 6.822390046296296084e+00 6.931370081018518370e+00 7.041336323302469502e+00 7.142209683641975282e+00 7.174157986111111107e+00 7.116789641203703276e+00 7.024781057098764769e+00 6.938279320987653875e+00 6.865032793209876694e+00 6.801854745370370381e+00 6.765276813271604794e+00 6.733261959876543301e+00 6.733699363425925455e+00 6.741337770061728740e+00 6.743629918981481453e+00 6.757179301697530782e+00 6.768974247685185297e+00 6.817724247685184480e+00 6.884494116512345663e+00 6.967153260030864992e+00 7.037997685185185759e+00 7.130611014660493296e+00 7.215306712962963331e+00 7.388356481481481275e+00 7.427996720679012732e+00 7.503193962191358146e+00 7.510092110339505744e+00 7.456502218364197354e+00 7.394150752314814667e+00 7.350892650462963474e+00 7.316733217592592098e+00 7.288652102623457196e+00 7.274553915895062062e+00 7.290068962191357471e+00 7.309139660493826796e+00 7.313054591049382047e+00 7.335721450617283423e+00 7.363475597993827115e+00 7.403141878858025215e+00 7.462045235339505922e+00 7.536412037037036882e+00 7.616998456790123662e+00 7.697223186728394673e+00 7.789136284722221859e+00 7.896366705246913753e+00 8.005807773919753956e+00 8.090221836419752677e+00 8.094309895833331936e+00 8.046021412037037024e+00 7.980383391203702992e+00 7.915315393518517872e+00 7.869575135030864033e+00 7.830028935185184835e+00 7.795855516975308319e+00 7.742180266203703809e+00 7.760231481481480564e+00 7.780868537808641960e+00 7.790332754629630152e+00 7.809487847222222889e+00 7.840299479166666252e+00 7.882456114969135896e+00 7.933765914351852189e+00 7.998581693672839776e+00 8.082916184413580396e+00 8.169703896604938009e+00 8.259384162808641960e+00 8.355019290123456344e+00 8.447720389660494433e+00 8.506628086419752321e+00 8.481088927469135896e+00 8.402526523919751966e+00 8.315217013888888786e+00 8.221969521604938436e+00 8.143832465277776933e+00 8.065143711419752393e+00 8.013958815586420315e+00 7.981275077160493225e+00 7.963972800925926521e+00 7.939032600308641996e+00 7.918774594907406872e+00 7.908995466820988085e+00 7.919016685956790091e+00 7.947831307870369955e+00 7.984487364969136358e+00 8.046099537037036953e+00 8.137574749228393856e+00 8.178324170524692960e+00 8.265306230709876800e+00 8.346581307870369670e+00 8.437824074074073977e+00 8.506655092592593448e+00 8.489978780864198882e+00 8.391162712191357897e+00 8.272236207561729060e+00 8.164005594135801402e+00 8.067069347993827577e+00 7.978177565586419107e+00 7.915852141203703063e+00 7.861713927469135221e+00 7.831187307098764983e+00 7.800707947530864494e+00 7.775100308641975211e+00 7.765865162037036917e+00 7.773735532407407334e+00 7.794729938271603764e+00 7.829838445216049436e+00 7.890014467592592950e+00 7.961928047839506029e+00 8.031472800925925526e+00 8.110930748456789630e+00 8.200796682098765444e+00 8.293641493055556424e+00 8.378130787037036953e+00 8.434212962962963189e+00 8.381760223765432727e+00 8.271871141975307040e+00 8.047494212962963189e+00 8.011207561728394211e+00 7.963247010030864104e+00 7.911363329475308959e+00 7.874207175925925561e+00 7.855933159722221504e+00 7.831032503858025073e+00 7.815518904320986948e+00 7.787422839506172423e+00 7.769984085648149019e+00 7.766910204475308888e+00 7.792569444444445104e+00 7.814427565586418822e+00 7.866987847222221220e+00 7.918749517746913824e+00 7.991756365740740442e+00 8.071963734567900062e+00 8.141711033950617349e+00 8.160357831790124195e+00 8.079604070216047873e+00 7.930795717592592275e+00 7.801226369598766475e+00 7.691517168209876409e+00 7.604167148919753316e+00 7.543877797067900737e+00 7.502554012345679091e+00 7.484243827160494078e+00 7.466032986111111214e+00 7.432610918209876516e+00 7.420073302469136323e+00 7.423010706018518867e+00 7.427464795524691077e+00 7.470977527006173347e+00 7.533115837191358466e+00 7.597233314043210228e+00 7.673464506172839705e+00 7.749884741512345521e+00 7.827826967592592666e+00 7.838413869598764627e+00 7.735106577932098659e+00 7.582773919753086567e+00 7.433048321759258670e+00 7.299214891975308817e+00 7.190142746913580574e+00 7.113663676697530747e+00 7.052925829475308994e+00 7.016731288580246861e+00 6.968344425154320732e+00 6.924374035493826796e+00 6.886938657407407405e+00 6.851123167438272432e+00 6.851497395833333393e+00 6.880270061728395170e+00 6.916928047839506100e+00 6.979017650462963296e+00 7.037788869598765373e+00 7.106044077932098801e+00 7.187200038580247252e+00 7.116520061728394353e+00 6.939570312499999893e+00 6.768672357253087135e+00 6.465422935956789630e+00 6.423902391975309101e+00 6.354944540895061778e+00 6.282324942129629441e+00 6.248261477623456628e+00 6.211282793209876196e+00 6.179436728395062417e+00 6.135378086419752464e+00 6.100015914351851087e+00 6.095499131944444926e+00 6.110430652006172636e+00 6.156657021604938329e+00 6.208443769290123981e+00 6.277176890432098588e+00 6.351528260030864459e+00 6.443356963734567344e+00 6.500445119598765586e+00 6.457510127314814774e+00 6.310297067901234236e+00 6.138112943672838995e+00 5.982950906635802646e+00 5.861246141975308355e+00 5.748956404320987090e+00 5.898671392746913433e+00 5.942745466820987588e+00 5.946026234567900914e+00 5.932323495370370736e+00 5.912306616512346125e+00 5.895662615740740797e+00 5.911323302469136287e+00 5.944122299382716079e+00 6.004677372685184977e+00 6.041214313271605185e+00 6.114199459876543230e+00 6.194611786265431519e+00 6.279374999999999929e+00 6.359191261574073550e+00 6.335186149691358182e+00 6.192671682098765729e+00 6.031237943672839386e+00 5.897447916666666679e+00 5.782813464506172174e+00 5.704024402006172778e+00 5.647727141203704448e+00 5.628802083333333428e+00 5.613556134259259700e+00 5.591250964506173204e+00 5.570702642746913291e+00 5.578892264660494149e+00 5.587324459876542804e+00 5.613358410493827222e+00 5.663060860339506064e+00 5.730942804783950351e+00 5.798582175925925952e+00 5.883224826388889106e+00 5.968740354938271153e+00 5.997545814043209411e+00 5.912565586419752606e+00 5.747930652006172814e+00 5.597666377314815200e+00 5.483486689814814241e+00 5.399584780092592240e+00 5.235217496141975069e+00 5.256688850308641747e+00 5.269480613425925775e+00 5.265625000000000000e+00 5.260213638117283708e+00 5.255839602623456841e+00 5.279529803240740726e+00 5.318677662037036846e+00 5.389868344907407405e+00 5.474331114969135825e+00 5.575765335648148913e+00 5.694810956790123058e+00 5.810082947530864850e+00 5.907885802469135861e+00 5.893302469135802468e+00 5.763605324074074332e+00 5.634218267746914144e+00 5.521473765432098446e+00 5.440838155864197390e+00 5.387515432098765267e+00 5.349660493827160579e+00 5.347765239197530995e+00 5.357265625000000142e+00 5.365844907407407938e+00 5.378606770833333606e+00 5.410695408950616958e+00 5.520181809413580609e+00 5.597862654320987730e+00 5.695683834876543727e+00 5.797000868055556033e+00 5.997304687499999787e+00 6.058183834876543550e+00 6.157326388888889390e+00 6.182687114197530143e+00 6.078273533950617313e+00 5.909383680555555074e+00 5.766185378086420066e+00 5.660307195216049969e+00 5.560111400462963260e+00 5.480821277006172387e+00 5.429663387345678771e+00 5.413719135802469218e+00 5.410093074845679695e+00 5.399146894290123733e+00 5.403386381172839315e+00 5.435698302469136323e+00 5.465661651234567486e+00 5.534600212191358004e+00 5.620134066358025038e+00 5.719208140432098908e+00 5.833818962191357649e+00 5.951747685185185155e+00 6.084691358024691077e+00 6.225060763888889070e+00 6.330293692129630223e+00 6.308683931327160543e+00 6.187333622685184942e+00 6.049173418209876196e+00 5.926660397376543266e+00 5.826790605709876836e+00 5.740550250771605079e+00 5.567346643518518157e+00 5.575145158179012128e+00 5.584109278549383326e+00 5.573181905864196928e+00 5.561958912037036740e+00 5.574842303240740371e+00 5.598382523148147882e+00 5.644800347222221681e+00 5.714464699074073728e+00 5.787141685956790127e+00 5.887205343364198207e+00 5.984972993827160082e+00 6.087739197530863677e+00 6.186149209104939040e+00 6.293253279320987659e+00 6.338094618055555074e+00 6.256894290123456770e+00 6.104775752314814063e+00 5.958449074074073870e+00 5.824790702160493439e+00 5.716188753858024718e+00 5.638127893518518619e+00 5.573866222993827613e+00 5.563580729166666572e+00 5.546890432098765089e+00 5.538832465277777395e+00 5.546393229166667105e+00 5.569588155864197532e+00 5.607040412808641960e+00 5.673542148919753281e+00 5.748028549382715902e+00 5.912522183641975460e+00 5.987935956790123804e+00 6.101347897376543372e+00 6.236833043981481417e+00 6.359923804012345805e+00 6.394992766203704271e+00 6.312775366512345165e+00 6.181060474537037663e+00 6.075618248456789772e+00 5.984371624228394637e+00 5.918397472993827790e+00 5.856785300925926308e+00 5.834543788580247359e+00 5.823590374228395206e+00 5.828625096450616994e+00 5.817316743827160685e+00 5.822276716820987907e+00 5.844505690586419888e+00 5.887949459876542946e+00 5.949777199074073764e+00 6.019279031635802468e+00 6.108965084876543550e+00 6.202286844135802113e+00 6.304837962962963616e+00 6.419503279320987410e+00 6.553396508487653982e+00 6.526506558641975708e+00 6.365313464506172636e+00 6.192787422839506561e+00 6.079486400462962514e+00 5.849535108024690899e+00 5.816154996141976063e+00 5.795047260802469680e+00 5.806166570216049649e+00 5.818504050925925597e+00 5.819493634259259807e+00 5.826635802469135150e+00 5.843818479938271970e+00 5.880887345679012945e+00 5.957546778549382971e+00 6.039536554783950351e+00 6.124843750000000142e+00 6.218931809413580147e+00 6.320970775462963154e+00 6.446373939043209766e+00 6.565179880401234236e+00 6.686688850308642351e+00 6.767690489969135470e+00 6.722202932098765515e+00 6.579525945216048832e+00 6.428628954475308355e+00 6.305897472993827968e+00 6.208487172067902016e+00 6.135260416666667105e+00 6.066793016975308817e+00 6.047464313271604830e+00 6.025523244598765871e+00 6.015115258487654160e+00 6.002220293209876267e+00 6.008603877314815378e+00 6.028091242283950990e+00 6.075017843364197923e+00 6.116236496913580289e+00 6.200965470679012270e+00 6.300426311728394957e+00 6.400438368055555216e+00 6.511073495370371056e+00 6.631252411265432301e+00 6.756823881172839386e+00 6.878730227623456095e+00 6.889766107253087135e+00 6.793759162808642671e+00 6.673848861882715866e+00 6.571708622685185297e+00 6.506350790895061742e+00 6.456749614197530462e+00 6.406022376543210051e+00 6.401018518518518441e+00 6.410919656635802433e+00 6.425529031635802468e+00 6.436893807870370132e+00 6.443443769290123413e+00 6.489743441358024612e+00 6.535232928240740868e+00 6.615246913580246080e+00 6.705519386574073870e+00 6.816572627314815058e+00 6.931399980709875841e+00 7.050598958333333499e+00 7.177018711419752783e+00 7.294051408179011986e+00 7.325867091049382829e+00 7.198026620370369777e+00 7.108134645061728207e+00 7.004362943672838959e+00 6.911937692901235053e+00 6.852468171296296262e+00 6.802172067901234520e+00 6.782321566358024079e+00 6.780167824074074368e+00 6.785733989197531457e+00 6.786754918981481310e+00 6.797650945216049401e+00 6.830622588734568623e+00 6.879739101080247110e+00 6.953170331790123448e+00 7.029840856481481381e+00 7.135930266203703631e+00 7.241585648148148202e+00 7.377701581790123697e+00 7.502004726080246932e+00 7.577843846450616816e+00 7.523961709104938222e+00 7.369454089506173311e+00 7.212500000000000355e+00 7.083031925154321229e+00 6.982412229938271153e+00 6.823366608796296084e+00 6.793928433641974962e+00 6.765095486111111889e+00 6.743928915895061493e+00 6.732880497685185262e+00 6.716247588734567842e+00 6.743913483796296404e+00 6.801651234567901660e+00 6.878569155092592702e+00 6.960870466820987090e+00 7.052367862654321584e+00 7.152527006172840096e+00 7.261260609567901092e+00 7.364448302469136287e+00 7.384095293209877120e+00 7.266853298611111178e+00 7.093879243827160508e+00 6.911704764660493439e+00 6.761320408950617811e+00 6.644372106481481133e+00 6.532094907407407725e+00 6.468558063271604652e+00 6.426206114969135186e+00 6.395643807870370345e+00 6.361822916666667105e+00 6.331849440586419853e+00 6.333435088734567842e+00 6.356530671296297008e+00 6.398154417438271402e+00 6.456839795524691006e+00 6.522709297839506704e+00 6.616086998456790269e+00 6.708501157407407156e+00 6.808892264660494575e+00 6.928384452160494256e+00 7.012954282407407369e+00 6.966182002314814881e+00 6.840574845679012306e+00 6.667031249999999964e+00 6.498589409722222321e+00 6.359661458333333073e+00 6.250729648919753245e+00 6.150836226851851940e+00 6.103838734567901270e+00 6.072489390432099121e+00 6.048735050154320447e+00 6.026889949845679162e+00 6.015208815586420066e+00 6.033362268518518867e+00 6.065192418981481204e+00 6.116876446759259345e+00 6.183092206790123058e+00 6.259413097993827613e+00 6.351834490740740691e+00 6.458644868827160046e+00 6.574252507716049188e+00 6.648634741512346125e+00 6.589709683641975069e+00 6.427067901234567948e+00 6.269067804783950315e+00 6.145100308641975317e+00 6.059421296296296333e+00 5.984467110339505957e+00 5.945693962191358040e+00 5.932420428240741117e+00 5.922863136574074261e+00 5.913115837191357471e+00 5.877052951388889390e+00 5.892831307870370239e+00 5.946090374228394815e+00 6.002066454475308177e+00 6.072485050154321051e+00 6.153650655864197461e+00 6.248197337962963616e+00 6.360461516203703702e+00 6.477914737654320909e+00 6.547729070216049330e+00 6.481367669753086425e+00 6.313217592592592631e+00 6.135570505401235053e+00 6.025751350308642174e+00 5.935241608796296475e+00 5.861214795524691823e+00 5.820302372685184800e+00 5.806699942129629477e+00 5.805395447530864672e+00 5.804116512345679268e+00 5.805526138117284241e+00 5.817831307870370061e+00 5.856837384259258705e+00 5.911730324074073728e+00 6.071627604166667247e+00 6.164610821759259451e+00 6.277210648148147776e+00 6.384551504629629726e+00 6.484371141975308284e+00 6.483879726080246542e+00 6.253461130401234414e+00 6.143289930555555500e+00 6.010438850308641889e+00 5.890408468364197070e+00 5.791067708333333286e+00 5.697751736111110965e+00 5.646423128858024221e+00 5.624872202932099441e+00 5.594661940586419746e+00 5.581554783950616994e+00 5.574628182870370097e+00 5.601579378858025038e+00 5.639166666666667105e+00 5.695081018518518334e+00 5.770060281635802646e+00 5.858241705246913789e+00 5.952846257716049472e+00 6.045302372685185333e+00 6.140038580246913291e+00 6.232518807870370381e+00 6.215750868055555323e+00 6.074720775462963296e+00 5.892289255401234271e+00 5.738977141203703169e+00 5.625154320987654444e+00 5.526703800154320945e+00 5.439935860339505602e+00 5.398000578703703312e+00 5.385439332561728243e+00 5.375408950617283743e+00 5.373706114969135861e+00 5.359018614969135008e+00 5.409424672067901341e+00 5.476455922067901660e+00 5.550035686728395312e+00 5.638248456790123875e+00 5.739003182870370701e+00 5.859444926697530143e+00 5.973433641975308461e+00 6.099783468364197603e+00 6.231958429783950315e+00 6.343288483796295729e+00 6.357744020061728563e+00 6.250876736111110610e+00 6.088013599537037024e+00 5.962614293981482128e+00 5.876034915123456770e+00 5.793620273919753316e+00 5.745401716820987659e+00 5.719309413580247359e+00 5.720722415123456805e+00 5.723766396604938578e+00 5.729256365740741153e+00 5.746776620370370736e+00 5.782704475308642067e+00 5.835679494598765338e+00 5.913062789351852366e+00 6.000687692901234271e+00 6.111571180555555038e+00 6.223370949074074510e+00 6.342464795524692001e+00 6.463958815586419604e+00 6.645244984567900914e+00 6.623967978395062239e+00 6.510978491512345201e+00 6.370562789351851940e+00 6.245034239969135648e+00 6.165412326388889142e+00 6.108319830246913718e+00 6.075440779320987694e+00 6.069668209876543763e+00 6.069966724537036562e+00 6.084774787808642671e+00 6.089991801697530960e+00 6.112020640432098695e+00 6.162007137345678842e+00 6.236898630401234378e+00 6.324831693672838817e+00 6.433162615740741330e+00 6.542271412037036882e+00 6.666245659722222605e+00 6.790612943672839741e+00 6.906782407407407121e+00 6.928882619598764947e+00 6.825876736111110787e+00 6.561619888117284027e+00 6.466031539351851265e+00 6.406526813271605114e+00 6.368246527777777999e+00 6.368491994598765693e+00 6.386275559413579828e+00 6.395796199845679375e+00 6.368693576388888111e+00 6.380302854938271651e+00 6.427725212191357507e+00 6.487561246141975602e+00 6.565964023919753423e+00 6.656565875771605079e+00 6.752481192129629939e+00 6.870257523148148415e+00 6.970668402777777217e+00 6.987757040895061778e+00 6.886069155092592098e+00 6.726333429783950990e+00 6.601535493827160650e+00 6.519961419753086851e+00 6.475322145061728207e+00 6.461536458333333677e+00 6.470187596450617029e+00 6.487227527006172778e+00 6.491997010030863713e+00 6.501596739969135008e+00 6.519298804012345627e+00 6.553779417438271970e+00 6.622500000000000497e+00 6.714252507716049756e+00 6.815705054012345165e+00 6.933316454475308532e+00 7.061688850308642351e+00 7.171917920524691681e+00 7.205510223765431377e+00 7.094257330246913185e+00 6.919409239969135150e+00 6.604673032407407440e+00 6.569760802469135186e+00 6.535797646604938116e+00 6.506283757716048832e+00 6.508263406635802717e+00 6.528215181327160721e+00 6.542375578703703454e+00 6.564119405864198065e+00 6.582158564814814206e+00 6.628748553240740193e+00 6.707510127314814774e+00 6.791526813271604901e+00 6.889790219907407476e+00 7.016065779320987517e+00 7.136669077932098482e+00 7.273840181327160259e+00 7.426807966820987872e+00 7.528994020061728243e+00 7.487946566358024469e+00 7.325442708333333108e+00 7.148363715277778141e+00 7.012162422839506526e+00 6.900278742283950884e+00 6.793699363425925952e+00 6.724867380401234662e+00 6.699834104938271473e+00 6.690269579475308426e+00 6.682840952932099121e+00 6.688856577932098979e+00 6.708074363425925668e+00 6.740406057098764947e+00 6.842135898919753600e+00 6.898760127314814916e+00 6.998220968364197603e+00 7.112943672839506348e+00 7.238619309413580005e+00 7.368857060185185937e+00 7.501368152006172352e+00 7.612684220679011737e+00 7.577201485339506881e+00 7.418818962191357613e+00 7.234206693672839528e+00 7.074219714506172707e+00 6.941328607253086425e+00 6.815913387345679197e+00 6.732872781635802717e+00 6.682173996913579828e+00 6.658543113425926308e+00 6.644511477623456841e+00 6.646657986111111249e+00 6.654799864969136003e+00 6.686254340277778319e+00 6.742246334876543123e+00 6.816304494598765196e+00 7.023648244598764911e+00 7.152899787808641996e+00 7.281910204475309456e+00 7.427260320216049649e+00 7.568848861882715440e+00 7.667409818672839883e+00 7.611544656635802930e+00 7.362697723765432301e+00 7.300620659722222960e+00 7.216085551697530853e+00 7.162531828703704306e+00 7.112451292438271899e+00 7.076287615740740833e+00 7.061119791666666146e+00 7.065442708333333321e+00 7.084993730709876480e+00 7.111724537037037663e+00 7.156983506944444962e+00 7.208505979938271579e+00 7.283661747685185262e+00 7.382581018518518334e+00 7.511754436728395490e+00 7.640392554012345627e+00 7.774566936728394495e+00 7.915312017746914286e+00 8.077520736882714658e+00 8.233587962962962692e+00 8.297388599537036669e+00 8.245968846450617562e+00 8.144549093364195969e+00 8.034828800154320660e+00 7.950130208333333393e+00 7.882983217592593128e+00 7.826249517746914464e+00 7.799288676697531564e+00 7.808083043981480564e+00 7.817202932098765267e+00 7.839531732253086638e+00 7.861300154320987055e+00 7.893824749228394388e+00 7.970747010030864388e+00 8.058949170524691397e+00 8.153766396604938294e+00 8.262291666666666146e+00 8.389959972993827009e+00 8.513447627314814525e+00 8.660986207561728989e+00 8.804411168981481239e+00 8.906644965277777715e+00 8.924870273919752961e+00 8.834619984567900985e+00 8.691754918981480671e+00 8.585894097222222854e+00 8.505397858796296617e+00 8.423026620370370310e+00 8.361836419753085892e+00 8.335965952932099299e+00 8.324471450617284773e+00 8.310679012345678629e+00 8.294713059413579614e+00 8.303431712962963118e+00 8.323001543209876729e+00 8.361519579475308106e+00 8.436561535493826369e+00 8.522447916666665790e+00 8.610247878086420670e+00 8.704182581018518050e+00 8.819116994598765302e+00 8.917645640432098730e+00 8.938976176697531528e+00 8.849273726851851762e+00 8.688805459104937512e+00 8.544319058641976383e+00 8.422447916666666146e+00 8.327938368055555429e+00 8.259809510030864388e+00 8.227147472993827648e+00 8.200779320987654941e+00 8.186259645061729984e+00 8.169709201388888786e+00 8.157178337191357542e+00 8.165686246141975246e+00 8.199527391975308888e+00 8.252241030092593022e+00 8.326896701388887934e+00 8.411550925925926236e+00 8.507773437500000924e+00 8.606820023148149090e+00 8.705758584104938080e+00 8.732656732253085252e+00 8.598795814043210584e+00 8.218534432870370665e+00 8.056969521604937512e+00 7.926059510030863287e+00 7.810854070216048939e+00 7.718963638117284809e+00 7.670617766203703169e+00 7.638413387345678984e+00 7.598373842592592631e+00 7.493527681327161183e+00 7.509623360339506171e+00 7.539435281635802788e+00 7.592966820987654408e+00 7.656386959876543052e+00 7.749687017746913931e+00 7.831053722993827293e+00 7.912286361882714836e+00 8.008909143518518903e+00 8.105212191358026175e+00 8.082710744598765373e+00 7.911241801697530995e+00 7.665661168981481310e+00 7.472533275462962976e+00 7.292122395833333215e+00 7.146875482253085998e+00 7.026400945216049188e+00 6.934396701388888751e+00 6.888431230709875841e+00 6.836006944444444677e+00 6.775155285493827506e+00 6.745790895061728243e+00 6.733721064814814916e+00 6.755300925925926236e+00 6.800499131944444109e+00 6.854624324845679517e+00 6.915718074845679020e+00 6.990486111111111178e+00 7.090570023148147882e+00
2.585797646604938382e+00 2.577478780864197461e+00 2.509038869598765320e+00 2.032290219907407103e+00 1.608092206790123324e+00 1.477738233024691317e+00 1.441109182098765373e+00 1.427811535493827000e+00 1.429943094135802450e+00 1.420676118827160384e+00 1.425889274691357844e+00 1.428516107253086531e+00 1.438786651234567948e+00 1.452180266203703551e+00 1.476909239969135701e+00 1.492690007716049427e+00 1.421113040123456628e+00 1.318787615740740771e+00 1.262983217592592577e+00 1.223886959876543168e+00 1.187207272376543221e+00 1.157875192901234529e+00 1.126350790895061849e+00 1.100097415123456823e+00 1.250431616512345689e+00 1.301528742283950768e+00 1.347817804783950635e+00 1.374709201388888857e+00 1.393538290895061760e+00 1.413681037808641960e+00 1.429266975308641996e+00 1.570061246141975175e+00 1.558976176697530969e+00 1.512124807098765400e+00 1.478069058641975353e+00 1.473944347993827231e+00 1.482592592592592684e+00 1.492982735339505984e+00 1.508823302469135763e+00 1.525367959104938276e+00 1.536091338734567824e+00 1.540613425925925872e+00 1.554288194444444438e+00 1.548856577932098633e+00 1.512006655092592577e+00 1.469197048611111001e+00 1.434357156635802433e+00 1.409344135802469200e+00 1.399822048611111036e+00 1.394153163580246879e+00 1.395203028549382829e+00 1.410760995370370363e+00 1.419223572530864175e+00 1.427853491512345752e+00 1.442827932098765364e+00 1.457767650462962861e+00 1.477795138888888804e+00 1.507719907407407467e+00 1.534497010030864139e+00 1.558951099537037033e+00 1.572757523148148096e+00 1.588488136574074172e+00 1.555541087962962976e+00 1.549525945216049472e+00 1.583022280092592604e+00 1.573459683641975415e+00 1.542332175925925863e+00 1.519160397376543292e+00 1.504793113425926032e+00 1.496486304012345725e+00 1.490420042438271642e+00 1.495843460648148104e+00 1.514722222222222303e+00 1.535264756944444420e+00 1.545002893518518494e+00 1.554456500771605132e+00 1.570407503858024745e+00 1.588284143518518432e+00 1.601975308641975460e+00 1.623127411265432141e+00 1.635751350308642049e+00 1.646398533950617304e+00 1.651958912037037042e+00 1.662515432098765400e+00 1.672861207561728403e+00 1.681406732253086345e+00 1.661027681327160499e+00 1.628401813271604937e+00 1.591361400462962816e+00 1.567503375771604812e+00 1.552247299382715884e+00 1.537760898919753094e+00 1.533099440586419782e+00 1.515887345679012288e+00 1.516334394290123511e+00 1.543402295524691326e+00 1.555256076388888964e+00 1.568226273148148220e+00 1.579498456790123573e+00 1.603097511574074208e+00 1.628507426697530791e+00 1.648835841049382855e+00 1.677207754629629788e+00 1.687980806327160632e+00 1.699548128858024532e+00 1.702307581018518423e+00 1.713905285493827035e+00 1.706318479938271571e+00 1.680961612654320980e+00 1.627302276234567913e+00 1.583908661265432061e+00 1.551009355709876525e+00 1.523909625771604937e+00 1.504879918981481435e+00 1.487267554012345672e+00 1.487033179012345663e+00 1.494164255401234431e+00 1.495242573302469236e+00 1.496180073302469049e+00 1.510233892746913664e+00 1.531362364969135692e+00 1.561778549382716097e+00 1.586615547839506091e+00 1.615024112654320998e+00 1.524669656635802450e+00 1.537433931327160552e+00 1.586472318672839332e+00 1.633013117283950599e+00 1.652404031635802628e+00 1.673065200617283921e+00 1.663680555555555607e+00 1.608728780864197461e+00 1.550570505401234644e+00 1.513013117283950493e+00 1.489178722993827364e+00 1.457947048611111240e+00 1.447669753086419764e+00 1.445245949074073888e+00 1.450725308641975353e+00 1.459648437499999840e+00 1.460706983024691263e+00 1.467840470679012244e+00 1.481778067129629672e+00 1.507645158179012457e+00 1.540127797067901261e+00 1.578039158950617304e+00 1.617169656635802477e+00 1.646617476851851780e+00 1.679091917438271464e+00 1.695030381944444553e+00 1.702496624228394984e+00 1.711778549382716008e+00 1.717243441358024647e+00 1.679727044753086540e+00 1.620285493827160472e+00 1.518885513117284036e+00 1.487290702160493971e+00 1.495469714506172831e+00 1.502495659722222321e+00 1.504707272376543337e+00 1.515260898919752908e+00 1.519095293209876463e+00 1.512927758487654373e+00 1.511428915895061564e+00 1.508384934413580236e+00 1.517956211419753121e+00 1.539236593364197603e+00 1.559769965277777892e+00 1.585719039351851878e+00 1.617019675925925881e+00 1.635824652777777777e+00 1.663091724537036908e+00 1.688283179012345592e+00 1.675690104166666528e+00 1.623731674382715928e+00 1.547692418981481577e+00 1.496926601080246888e+00 1.459245756172839581e+00 1.440948109567901092e+00 1.426405285493827169e+00 1.426977719907407405e+00 1.435500096450617269e+00 1.443517554012345716e+00 1.449315682870370381e+00 1.455085841049382767e+00 1.467611400462963012e+00 1.476737557870370532e+00 1.490090663580246888e+00 1.537204861111111098e+00 1.571077353395061715e+00 1.603449074074073888e+00 1.629809992283950626e+00 1.641497878086419782e+00 1.633377700617284045e+00 1.568538290895061804e+00 1.499465181327160668e+00 1.441698013117284072e+00 1.407273341049382731e+00 1.385828993055555625e+00 1.369240933641975300e+00 1.375444637345679011e+00 1.382900752314814907e+00 1.379892939814814756e+00 1.379218750000000160e+00 1.381328125000000018e+00 1.382322530864197541e+00 1.398246527777777803e+00 1.427025945216049418e+00 1.458814621913580245e+00 1.489962866512345663e+00 1.526977719907407272e+00 1.549307002314814996e+00 1.566387924382716124e+00 1.520755208333333330e+00 1.431760223765432105e+00 1.366817611882715999e+00 1.400942322530864148e+00 1.388487172067901287e+00 1.375660204475308568e+00 1.367363522376543239e+00 1.367396315586419719e+00 1.360660204475308666e+00 1.355186631944444553e+00 1.348378182870370257e+00 1.352562210648148300e+00 1.365882523148148175e+00 1.379852430555555509e+00 1.410233892746913575e+00 1.445744598765432043e+00 1.479839891975308630e+00 1.510401716820987561e+00 1.530434027777777928e+00 1.534887635030864228e+00 1.506093267746913655e+00 1.424481095679012377e+00 1.348995466820987588e+00 1.302022569444444500e+00 1.283212287808642049e+00 1.268661265432098784e+00 1.412263213734567868e+00 1.471112557870370319e+00 1.491884162808642111e+00 1.497747878086419737e+00 1.493509355709876640e+00 1.498559027777777608e+00 1.510450906635802504e+00 1.528685860339506153e+00 1.433924093364197461e+00 1.444565972222222161e+00 1.485860339506172911e+00 1.528479938271604999e+00 1.562030767746913629e+00 1.578111014660493971e+00 1.564839891975308594e+00 1.498077739197530844e+00 1.426249035493827089e+00 1.380983796296296306e+00 1.363164062499999885e+00 1.353186728395061600e+00 1.348316454475308568e+00 1.362245370370370301e+00 1.376210455246913655e+00 1.379632040895061751e+00 1.393220968364197621e+00 1.407918113425925988e+00 1.429224054783950537e+00 1.448152488425926032e+00 1.484388985339506029e+00 1.512865065586419755e+00 1.536834008487654168e+00 1.562900752314814845e+00 1.575350115740740797e+00 1.572003279320987712e+00 1.518573013117283876e+00 1.433937596450617136e+00 1.369535590277777715e+00 1.335673225308642076e+00 1.322513020833333330e+00 1.380705536265432132e+00 1.389933449074074012e+00 1.413623167438271544e+00 1.423182870370370390e+00 1.426544656635802433e+00 1.440210262345678949e+00 1.461907793209876516e+00 1.480361689814814863e+00 1.512661554783950590e+00 1.531986400462962861e+00 1.531456404320987508e+00 1.550585455246913380e+00 1.563641975308641907e+00 1.565878665123456859e+00 1.546378761574074057e+00 1.477446469907407467e+00 1.421365258487654160e+00 1.389868827160493980e+00 1.374402970679012403e+00 1.366341145833333437e+00 1.368768325617283788e+00 1.390148533950617216e+00 1.414570794753086336e+00 1.436057581018518547e+00 1.450076195987654248e+00 1.468962673611110992e+00 1.528636670524691432e+00 1.552744502314814756e+00 1.571717785493827124e+00 1.573957368827160419e+00 1.447616222993827195e+00 1.468679108796296484e+00 1.518031442901234485e+00 1.532861207561728500e+00 1.482375578703703844e+00 1.417562210648148024e+00 1.376952642746913424e+00 1.353281249999999991e+00 1.341278452932098908e+00 1.335046778549382696e+00 1.344944058641975415e+00 1.350553144290123520e+00 1.364662422839506117e+00 1.387515914351851842e+00 1.401693190586419835e+00 1.433622202932098633e+00 1.456555266203703791e+00 1.490511188271604892e+00 1.530939429012345698e+00 1.568282696759259132e+00 1.582353877314814916e+00 1.581799768518518556e+00 1.587630208333333348e+00 1.594849054783950448e+00 1.593849826388888724e+00 1.575396894290123528e+00 1.521720196759259291e+00 1.457089120370370416e+00 1.408686824845678975e+00 1.393576388888888795e+00 1.374182098765432070e+00 1.403926022376543292e+00 1.400068962191358013e+00 1.423575906635802468e+00 1.436537422839506029e+00 1.451220582561728367e+00 1.465975115740740797e+00 1.481899594907407414e+00 1.511077353395061884e+00 1.536744309413580201e+00 1.551724537037036944e+00 1.570621141975308666e+00 1.582032214506172929e+00 1.592079957561728376e+00 1.594397665895061600e+00 1.598196373456790109e+00 1.605944733796296209e+00 1.555527102623456948e+00 1.474232735339506162e+00 1.409579957561728492e+00 1.368621720679012332e+00 1.344150270061728492e+00 1.342345196759259229e+00 1.343978105709876525e+00 1.355662133487654408e+00 1.368175636574074039e+00 1.380790412808642120e+00 1.397562210648148229e+00 1.421059992283950635e+00 1.452064525462962941e+00 1.490639949845679046e+00 1.520452353395061795e+00 1.432422357253086531e+00 1.452247299382716017e+00 1.517388599537036864e+00 1.565106095679012377e+00 1.595786554783950484e+00 1.594121817129629637e+00 1.548713831018518672e+00 1.480019290123456788e+00 1.441258198302469040e+00 1.419168113425925748e+00 1.404898244598765444e+00 1.394425636574073923e+00 1.403016010802468960e+00 1.417488908179012297e+00 1.428082079475308630e+00 1.431373939043209864e+00 1.451047453703703694e+00 1.471889467592592649e+00 1.501059992283950484e+00 1.536848476080246773e+00 1.570701678240740584e+00 1.597331211419753094e+00 1.613239293981481470e+00 1.626915509259259096e+00 1.629283854166666767e+00 1.629282407407407485e+00 1.576473765432098828e+00 1.504048032407407476e+00 1.449703414351851904e+00 1.404812885802469102e+00 1.429896315586419719e+00 1.403337673611111169e+00 1.415237750771604963e+00 1.435618730709876445e+00 1.453129340277777848e+00 1.469213927469135816e+00 1.482073206018518441e+00 1.503055555555555589e+00 1.527659625771604857e+00 1.551672453703703880e+00 1.578273533950617313e+00 1.594123746141975273e+00 1.605601851851851780e+00 1.607586323302469200e+00 1.609684124228395019e+00 1.620814525462962896e+00 1.622974054783950626e+00 1.626453028549382784e+00 1.589436728395061671e+00 1.519812885802469093e+00 1.447519290123456814e+00 1.414520158179012332e+00 1.395890721450617100e+00 1.387089602623456708e+00 1.379676408179012492e+00 1.398253761574074217e+00 1.402941261574074172e+00 1.411023823302469005e+00 1.427428144290123324e+00 1.441646894290123493e+00 1.468286554783950537e+00 1.434882330246913584e+00 1.441165123456790154e+00 1.494839409722222179e+00 1.551716338734567824e+00 1.586626639660493776e+00 1.606409625771604954e+00 1.630479359567901243e+00 1.632683256172839492e+00 1.637576195987654248e+00 1.630352044753086371e+00 1.581246141975308772e+00 1.522710262345678967e+00 1.480724344135802450e+00 1.462357253086419728e+00 1.453314525462963136e+00 1.450094521604938347e+00 1.464295910493827124e+00 1.480806809413580227e+00 1.500100790895061653e+00 1.513264371141975317e+00 1.526074459876543221e+00 1.554598765432098739e+00 1.584721257716049436e+00 1.618544560185185333e+00 1.649279031635802584e+00 1.674455054012345512e+00 1.679651331018518601e+00 1.678128375771605008e+00 1.683602912808642049e+00 1.687455632716049481e+00 1.670981385030864352e+00 1.508972318672839652e+00 1.465621624228395037e+00 1.435702160493827151e+00 1.423668981481481577e+00 1.428617862654320891e+00 1.440161072530864228e+00 1.458144290123456699e+00 1.480802951388888955e+00 1.500815007716049365e+00 1.509273244598765329e+00 1.529237557870370301e+00 1.556846064814814801e+00 1.582249228395061769e+00 1.623601948302469067e+00 1.659254436728395232e+00 1.680381462191357977e+00 1.688677179783950599e+00 1.703748553240740815e+00 1.713314525462962923e+00 1.714649402006172885e+00 1.677967303240740726e+00 1.595332272376543292e+00 1.525378086419753032e+00 1.483114390432098695e+00 1.451372492283950599e+00 1.432065007716049276e+00 1.439281925154320962e+00 1.448851755401234565e+00 1.460346257716049312e+00 1.468177565586419764e+00 1.474779610339506108e+00 1.472792727623456699e+00 1.511585648148148220e+00 1.557639853395061724e+00 1.594127121913580192e+00 1.633343460648148060e+00 1.661362364969135808e+00 1.674490258487654204e+00 1.682023051697530969e+00 1.679875578703703631e+00 1.604757426697530853e+00 1.514629629629629548e+00 1.445962094907407236e+00 1.406192129629629584e+00 1.384494598765432016e+00 1.375730613425925952e+00 1.380760513117283983e+00 1.396622299382716204e+00 1.404077932098765524e+00 1.409606481481481488e+00 1.413772183641975433e+00 1.429928626543209846e+00 1.456179108796296306e+00 1.489297839506172894e+00 1.529763695987654160e+00 1.570100790895061715e+00 1.595798128858024745e+00 1.616946855709876507e+00 1.635450906635802504e+00 1.649070216049382864e+00 1.659070216049382651e+00 1.483513213734567904e+00 1.418100405092592720e+00 1.380934606481481364e+00 1.361281828703703844e+00 1.352347125771605096e+00 1.353371431327160535e+00 1.357910879629629752e+00 1.371412519290123644e+00 1.386222993827160632e+00 1.396379243827160499e+00 1.397666859567901376e+00 1.403705632716049312e+00 1.427149402006172796e+00 1.455014467592592675e+00 1.489420331790123564e+00 1.526617476851851896e+00 1.566576967592592684e+00 1.586241801697531040e+00 1.614684606481481488e+00 1.631810378086419711e+00 1.628641010802469147e+00 1.586313657407407485e+00 1.508869116512345787e+00 1.437831307870370390e+00 1.396928530092592657e+00 1.378008777006172636e+00 1.359416956018518530e+00 1.369825424382715928e+00 1.387479745370370443e+00 1.402442611882716017e+00 1.413113425925925926e+00 1.413866222993827249e+00 1.417659143518518627e+00 1.458293306327160588e+00 1.501355613425925828e+00 1.538090760030864201e+00 1.564539930555555625e+00 1.597002797067901270e+00 1.608742283950617136e+00 1.614396219135802557e+00 1.611875964506172876e+00 1.575801986882715999e+00 1.485233410493827177e+00 1.428067611882716248e+00 1.395106577932098801e+00 1.372474922839506117e+00 1.361448206018518459e+00 1.367303240740740833e+00 1.381552854938271624e+00 1.398972318672839332e+00 1.411399016203703560e+00 1.421773726851851771e+00 1.441809413580246835e+00 1.469905960648148158e+00 1.505955343364197452e+00 1.566626639660493980e+00 1.589564525462962896e+00 1.599139660493827275e+00 1.611820505401234671e+00 1.613231577932098704e+00 1.591096161265432185e+00 1.435860339506172867e+00 1.381176697530864139e+00 1.357818287037036997e+00 1.350086805555555491e+00 1.339943576388888724e+00 1.331133777006172636e+00 1.339830246913580325e+00 1.355380979938271668e+00 1.365741222993827275e+00 1.372016300154320856e+00 1.388063271604938365e+00 1.421581307870370292e+00 1.447423804012345716e+00 1.485057388117283939e+00 1.514956597222222312e+00 1.539065393518518565e+00 1.565045331790123395e+00 1.576991705246913567e+00 1.588263888888888919e+00 1.593009741512345645e+00 1.564758873456790100e+00 1.487896894290123395e+00 1.413737461419753094e+00 1.368042052469135683e+00 1.335785108024691192e+00 1.320913869598765444e+00 1.312141685956790260e+00 1.315613425925925783e+00 1.332608024691358084e+00 1.347072241512345725e+00 1.360885416666666625e+00 1.378415316358024612e+00 1.397608989197530960e+00 1.447999614197530871e+00 1.486998456790123324e+00 1.519708236882716168e+00 1.543985339506172894e+00 1.544342689043209704e+00 1.554389467592592444e+00 1.554225501543209820e+00 1.563235918209876507e+00 1.561419270833333428e+00 1.564385609567901181e+00 1.506704764660493856e+00 1.436001639660493767e+00 1.393030478395061778e+00 1.376862943672839457e+00 1.363692611882715955e+00 1.363054591049382536e+00 1.368248939043209988e+00 1.390014949845678860e+00 1.403438946759259176e+00 1.420455729166666625e+00 1.440715663580246941e+00 1.473491030092592524e+00 1.490792341820987632e+00 1.528663676697531004e+00 1.557679880401234396e+00 1.572110821759259203e+00 1.584991801697530844e+00 1.593628472222222259e+00 1.600446566358024736e+00 1.466812307098765311e+00 1.441827739197530933e+00 1.409214891975308692e+00 1.379870756172839608e+00 1.357057291666666776e+00 1.346750578703703516e+00 1.352339891975308683e+00 1.360042920524691334e+00 1.383338155864197505e+00 1.406839313271605052e+00 1.428438946759259309e+00 1.434754050925925783e+00 1.456415412808641952e+00 1.495260416666666536e+00 1.531814236111111116e+00 1.570085358796296404e+00 1.596642554012345672e+00 1.620659239969135745e+00 1.629503279320987597e+00 1.639550057870370336e+00 1.645230516975308532e+00 1.633676215277777732e+00 1.575377604166666723e+00 1.451047453703703694e+00 1.426657503858024700e+00 1.413153452932098819e+00 1.419187885802469129e+00 1.440592206790123564e+00 1.468703221450617269e+00 1.484200424382716044e+00 1.443724440586419799e+00 1.437810088734567948e+00 1.476211902006172805e+00 1.515846354166666687e+00 1.558487654320987792e+00 1.598125482253086371e+00 1.623849344135802397e+00 1.639452160493827249e+00 1.645301408179012492e+00 1.637557870370370372e+00 1.585773051697530800e+00 1.510445119598765373e+00 1.463093653549382811e+00 1.440925925925925943e+00 1.438276909722222108e+00 1.448203125000000036e+00 1.473617862654320820e+00 1.499573206018518512e+00 1.505936053240740868e+00 1.516369116512345627e+00 1.532079957561728323e+00 1.559864004629629708e+00 1.591559124228395072e+00 1.623862364969135941e+00 1.649655671296296200e+00 1.655967881944444553e+00 1.672243923611111072e+00 1.680191454475308488e+00 1.665720968364197585e+00 1.602057291666666661e+00 1.514562114197530951e+00 1.443516589506172787e+00 1.422668306327160348e+00 1.421749131944444411e+00 1.432772955246913504e+00 1.457505787037037148e+00 1.485868055555555456e+00 1.505536747685185084e+00 1.515033275462962958e+00 1.531247106481481435e+00 1.557335069444444553e+00 1.595434510030864228e+00 1.621582754629629752e+00 1.646834972993827195e+00 1.656840277777777759e+00 1.667131558641975264e+00 1.660635127314814996e+00 1.669990837191357880e+00 1.672613329475308719e+00 1.640371334876543186e+00 1.557305169753086416e+00 1.478524305555555696e+00 1.421118344907407405e+00 1.402898823302469067e+00 1.395569540895061689e+00 1.394366801697530800e+00 1.410978009259259203e+00 1.428958333333333330e+00 1.448109567901234573e+00 1.462768132716049552e+00 1.489104938271605061e+00 1.519453607253086425e+00 1.469798418209876445e+00 1.494106867283950590e+00 1.549123746141975344e+00 1.598072916666666732e+00 1.641383584104938231e+00 1.665368923611111107e+00 1.680459104938271553e+00 1.688379147376543044e+00 1.654950810185185084e+00 1.569283854166666492e+00 1.475239679783950653e+00 1.418653067129629575e+00 1.390698784722222303e+00 1.372063560956790162e+00 1.370860821759259274e+00 1.375900366512345707e+00 1.398125964506172769e+00 1.413235918209876596e+00 1.424489293981481497e+00 1.448259548611111169e+00 1.482381365740740753e+00 1.524965277777777795e+00 1.562481674382716124e+00 1.640074749228394912e+00 1.666666184413580165e+00 1.679531732253086496e+00 1.686321855709876472e+00 1.697734857253086371e+00 1.694066358024691299e+00 1.654334008487654328e+00 1.493840181327160455e+00 1.459758391203703765e+00 1.447196180555555545e+00 1.443739872685185333e+00 1.438718653549382775e+00 1.439524016203703516e+00 1.459965277777777848e+00 1.492105516975308577e+00 1.514615644290123520e+00 1.543057966820987614e+00 1.565324556327160499e+00 1.604143518518518441e+00 1.633330439814814961e+00 1.662544367283950608e+00 1.687589699074073968e+00 1.699909818672839412e+00 1.711123167438271642e+00 1.713623167438271588e+00 1.717603684413580245e+00 1.724490258487654248e+00 1.725227141203703685e+00 1.689389949845679029e+00 1.631067226080247012e+00 1.577849151234567815e+00 1.536117862654320820e+00 1.519198495370370328e+00 1.511130401234567877e+00 1.516060956790123537e+00 1.536807966820987748e+00 1.563257619598765524e+00 1.585870466820987756e+00 1.528876350308641996e+00 1.525842496141975424e+00 1.583615933641975504e+00 1.640364101080246773e+00 1.680138406635802495e+00 1.714594425154321033e+00 1.733161651234567779e+00 1.751240837191357924e+00 1.764635898919753032e+00 1.765256076388888928e+00 1.763169849537037148e+00 1.744714506172839519e+00 1.689806134259259185e+00 1.632669753086419817e+00 1.582604648919753165e+00 1.548372395833333304e+00 1.528729263117283965e+00 1.522682773919753041e+00 1.536390335648148087e+00 1.550816454475308692e+00 1.572090084876543337e+00 1.580054012345678993e+00 1.591614583333333277e+00 1.616750096450617180e+00 1.648508391203703516e+00 1.679436728395061751e+00 1.720803433641975300e+00 1.757563175154321033e+00 1.779937307098765409e+00 1.794696180555555465e+00 1.805318769290123360e+00 1.590221354166666767e+00 1.537788387345679020e+00 1.498324170524691468e+00 1.465095968364197532e+00 1.450226176697530844e+00 1.444863522376543141e+00 1.448748553240740700e+00 1.476006944444444580e+00 1.494741512345679091e+00 1.514041763117284001e+00 1.525378568672839608e+00 1.536613618827160632e+00 1.560015432098765364e+00 1.596568287037037015e+00 1.632468653549382864e+00 1.673597608024691263e+00 1.709270351080246941e+00 1.739262635030864201e+00 1.756785783179012350e+00 1.774730420524691432e+00 1.764589120370370301e+00 1.691096161265432052e+00 1.498310667438271571e+00 1.447780189043209820e+00 1.420095968364197603e+00 1.403288483796296449e+00 1.404920428240740815e+00 1.418903356481481470e+00 1.430851176697530924e+00 1.445322627314814756e+00 1.488859953703703720e+00 1.477898823302469244e+00 1.515464891975308648e+00 1.561590952932098819e+00 1.599606963734567788e+00 1.640461998456790083e+00 1.664980227623456877e+00 1.694022472993827133e+00 1.716474247685185084e+00 1.730066550925925872e+00 1.701040219907407280e+00 1.600383873456790118e+00 1.494129050925925961e+00 1.424022955246913469e+00 1.383968942901234511e+00 1.374869309413580210e+00 1.366595775462962958e+00 1.371758777006172769e+00 1.384446855709876356e+00 1.394137249228394992e+00 1.400787037037036997e+00 1.409743441358024540e+00 1.427666859567901181e+00 1.455150945216049374e+00 1.484829764660493767e+00 1.522399209104938311e+00 1.555430652006172920e+00 1.579036458333333393e+00 1.611153549382716044e+00
