2.204299262152777885e+02 2.204259100115740750e+02 2.203828221450617093e+02 2.201625718557098708e+02 2.200441613618827148e+02 2.200168123070987747e+02 2.200488580246913557e+02 2.200964568865740603e+02 2.201443272569444503e+02 2.202027686149691306e+02 2.202588527199074235e+02 2.203235599922839469e+02 2.203848085455246917e+02 2.204393735532407277e+02 2.204999262152777817e+02 2.205714105902777931e+02 2.205240407986111109e+02 2.204858005401234493e+02 2.204598996913580322e+02 2.203546498842592598e+02 2.201831023341049445e+02 2.202029239004629630e+02 2.201206288580247019e+02 2.200689486882716039e+02 2.200457552083333326e+02 2.200275950038580390e+02 2.200290923996913648e+02 2.200504836998456710e+02 2.200555922067901236e+02 2.200446175733024745e+02 2.200319179205246769e+02 2.197821903935185048e+02 2.198007320601851688e+02 2.198288146219135797e+02 2.198823027584876684e+02 2.199402999614197540e+02 2.199999213927468986e+02 2.200471392746913750e+02 2.200905955825617184e+02 2.201336260609567717e+02 2.201755135995370267e+02 2.202250168788580140e+02 2.202651133294752981e+02 2.203058588927469259e+02 2.203574199459876581e+02 2.204000540123456631e+02 2.204121248070987633e+02 2.203289048032407322e+02 2.201399787808641975e+02 2.199743084490740728e+02 2.198419936342592678e+02 2.197708207947530923e+02 2.197162519290123441e+02 2.197068889853395035e+02 2.197111742862654467e+02 2.197175115740740807e+02 2.196691845100308740e+02 2.196374869791666526e+02 2.196163642939814622e+02 2.196144589120370370e+02 2.196488840663580220e+02 2.196879017168209884e+02 2.197464906442901338e+02 2.197882200038580436e+02 2.198452126736111154e+02 2.199103120177469179e+02 2.199543161651234584e+02 2.199958719135802312e+02 2.200488811728394865e+02 2.201031983024691385e+02 2.201567920524691431e+02 2.202089674961419803e+02 2.202430618248456824e+02 2.201602893518518442e+02 2.199598625578703661e+02 2.197474271797839549e+02 2.195700057870370472e+02 2.194567891589506416e+02 2.193590171682099026e+02 2.192751157407407447e+02 2.192273900462962786e+02 2.192061902006173000e+02 2.191753795331790116e+02 2.191309567901234345e+02 2.190999262152777760e+02 2.190638676697530798e+02 2.190668344907407459e+02 2.190918706597222183e+02 2.191327044753086284e+02 2.191716454475308637e+02 2.192275501543209941e+02 2.192784355709876536e+02 2.193254147376543131e+02 2.193536419753086193e+02 2.194032595486111177e+02 2.194480126350308637e+02 2.194987543402777703e+02 2.195449329668209941e+02 2.195941825810185151e+02 2.196126572145061857e+02 2.195172733410493890e+02 2.192835146604938359e+02 2.190502719907407538e+02 2.188659582368827046e+02 2.187424710648148221e+02 2.186352985146604908e+02 2.185489626736111290e+02 2.184899932484568126e+02 2.184529480131172932e+02 2.184224257330246814e+02 2.183699913194444662e+02 2.183271966628086602e+02 2.183078988233024802e+02 2.183157682291666788e+02 2.188043171296296237e+02 2.195567206790123578e+02 2.199215326003086375e+02 2.200854374035493777e+02 2.201812745949073928e+02 2.202475819830247019e+02 2.203114954668209862e+02 2.203742163387345840e+02 2.204386545138889062e+02 2.204982108410493993e+02 2.207392698688271651e+02 2.208121436149691306e+02 2.208913218557098617e+02 2.209182798032407504e+02 2.208153626543210066e+02 2.206169912229938177e+02 2.204253467399691431e+02 2.202968291859567955e+02 2.202186439043209703e+02 2.201453964120370586e+02 2.201105237268518522e+02 2.200876842206789945e+02 2.200837789351851939e+02 2.200451745756172954e+02 2.200101350308642054e+02 2.199942515432098560e+02 2.199870447530864226e+02 2.200154494598765496e+02 2.200397492283950669e+02 2.200750188078703786e+02 2.201235262345678905e+02 2.201667896412037067e+02 2.202083097029320982e+02 2.202620408950617445e+02 2.203114520640432090e+02 2.203507065007716221e+02 2.203876321373456619e+02 2.204255613425926015e+02 2.204687427662036896e+02 2.205161472800925822e+02 2.205328457754629596e+02 2.202847714120370313e+02 2.201967491319444434e+02 2.200724310378086557e+02 2.199858772183642088e+02 2.199316068672839322e+02 2.199119294945987519e+02 2.199218880208333360e+02 2.199380623070987610e+02 2.199457942708333462e+02 2.199112254050926083e+02 2.198630242091049354e+02 2.198519926697530877e+02 2.198653698881173000e+02 2.198963835841049388e+02 2.199501244212962945e+02 2.199953399884259397e+02 2.200472690007715926e+02 2.201081457368827046e+02 2.201693672839506064e+02 2.202229846643518272e+02 2.202655994405864135e+02 2.203147911844135933e+02 2.203610122492283949e+02 2.204127782600308478e+02 2.204862741126543426e+02 2.204876818094135729e+02 2.203425409915123510e+02 2.201483603395061550e+02 2.199968311149691260e+02 2.198954726080246758e+02 2.198292438271604965e+02 2.196541753472222069e+02 2.196926340663580390e+02 2.197107132523148039e+02 2.197072149884259034e+02 2.196798847415123248e+02 2.196536029128086511e+02 2.196467611882715971e+02 2.196625959683642009e+02 2.197001287615740921e+02 2.197496055169752935e+02 2.198036241319444457e+02 2.198512167245370392e+02 2.199122945601851882e+02 2.199664983603395001e+02 2.200207026427469259e+02 2.200793991126543290e+02 2.201369777199074065e+02 2.202009519675926015e+02 2.202651924189814849e+02 2.202305917245370495e+02 2.200868552276234595e+02 2.198809090470679166e+02 2.197239872685185276e+02 2.196045360725308626e+02 2.195252334104938257e+02 2.194656944444444662e+02 2.194501224922839526e+02 2.194384071180555509e+02 2.194335165895061550e+02 2.194059833140431977e+02 2.193763777970678746e+02 2.193010069444444525e+02 2.193979142554012469e+02 2.194441314621913648e+02 2.194900800540123669e+02 2.195410624035493754e+02 2.196107315779321141e+02 2.196686149691358025e+02 2.197243947723765416e+02 2.197915446566358071e+02 2.198581447723765336e+02 2.199231616512345795e+02 2.200097902199073872e+02 2.200708545524691431e+02 2.201297926311728475e+02 2.200789501350308512e+02 2.198982392939815043e+02 2.197015080054012230e+02 2.195572005208333337e+02 2.194725540123456824e+02 2.194064260223765359e+02 2.193660353973765496e+02 2.193527473958333474e+02 2.193523775077160565e+02 2.193419294945987588e+02 2.193315489969135683e+02 2.193182860725308672e+02 2.193237176890432067e+02 2.193580695408950874e+02 2.194180796682098560e+02 2.194830092592592621e+02 2.195881573109568023e+02 2.196498408564814895e+02 2.197136858603394955e+02 2.197866261574073974e+02 2.198436236496913807e+02 2.199086525848765348e+02 2.199723109567901247e+02 2.200347419945987610e+02 2.200986916473765405e+02 2.201730227623456813e+02 2.202682050540123555e+02 2.203383482831790161e+02 2.203751538387345477e+02 2.202671006944444514e+02 2.200771354166666640e+02 2.199076432291666663e+02 2.198000130208333474e+02 2.197453698881172954e+02 2.197139139660493754e+02 2.197032817322530889e+02 2.196947815393518511e+02 2.196870331790123316e+02 2.196613213734567864e+02 2.196343499228395046e+02 2.196170264274691419e+02 2.196388286072530889e+02 2.196865118634259204e+02 2.197384278549382657e+02 2.197937934027777658e+02 2.198601890432098855e+02 2.199217563657407482e+02 2.200641854745370267e+02 2.201148881172839538e+02 2.201800771604938234e+02 2.202361902006172727e+02 2.202877628279320845e+02 2.203463676697530786e+02 2.204207282021604897e+02 2.204903573495370495e+02 2.205462186535493743e+02 2.205264544753086398e+02 2.203793624614197597e+02 2.201919786844135842e+02 2.200270302854938222e+02 2.199314351851851939e+02 2.198860503472222376e+02 2.198755189043209839e+02 2.198853202160493936e+02 2.199137924382716278e+02 2.199218272569444252e+02 2.198980319251543278e+02 2.198823924575617355e+02 2.198878279320987588e+02 2.199167467206790150e+02 2.199685455246913648e+02 2.200369401041666890e+02 2.201053399884259250e+02 2.201761877893518431e+02 2.202369671103394921e+02 2.202986492091049229e+02 2.203508892746913546e+02 2.204178776041666481e+02 2.206165870949074019e+02 2.206988343942901167e+02 2.207556201774691260e+02 2.208433897569444468e+02 2.209123394097222217e+02 2.209211786265432238e+02 2.207928346836419564e+02 2.205676784336419871e+02 2.203667144097222206e+02 2.202357913773148255e+02 2.201528197337962922e+02 2.200957720871913637e+02 2.200480825617283926e+02 2.200256515239197483e+02 2.200216999421296293e+02 2.200005888310185185e+02 2.199714265046296191e+02 2.199498972800925856e+02 2.199478964120370392e+02 2.199837919560185071e+02 2.200245230516975425e+02 2.200831476658950407e+02 2.201554745370370370e+02 2.202234649884259454e+02 2.202907971643518579e+02 2.203587620563271514e+02 2.204225313464506257e+02 2.204820056905864192e+02 2.205527821180555748e+02 2.206277097800926015e+02 2.208061077353395092e+02 2.208584669174382498e+02 2.209582961998456767e+02 2.210368045910493890e+02 2.210366883680555645e+02 2.208951827739197427e+02 2.206650757137345522e+02 2.204787490354938200e+02 2.203619656635802357e+02 2.202802329282407356e+02 2.202198148148148107e+02 2.201816666666666720e+02 2.201789038387345840e+02 2.201733338155864317e+02 2.201571624228394910e+02 2.201283675733024836e+02 2.201119290123456835e+02 2.201210233410493800e+02 2.201498943865740614e+02 2.201958150077160496e+02 2.202513343942900974e+02 2.203251287615740921e+02 2.203927102623456733e+02 2.204590543016975346e+02 2.205254750192901270e+02 2.205815832368827216e+02 2.206450607638888926e+02 2.207065702160493856e+02 2.207617472029320993e+02 2.208203771219135945e+02 2.208863450038580254e+02 2.210912094907407379e+02 2.211095534336419917e+02 2.210206264467592518e+02 2.208071566358024711e+02 2.205794728973765473e+02 2.204147530864197506e+02 2.203197265624999943e+02 2.202749995177469202e+02 2.202515316358024791e+02 2.202516338734567967e+02 2.202573090277777794e+02 2.202292226080246849e+02 2.201873678626543267e+02 2.201630637538580402e+02 2.201673837770061652e+02 2.201907392939814940e+02 2.202406462191358116e+02 2.203011612654321141e+02 2.203701032021604931e+02 2.204203959297839504e+02 2.204850009645061846e+02 2.205402083333333110e+02 2.205912046682098833e+02 2.206407851080246871e+02 2.207007986111111109e+02 2.207577715084876502e+02 2.208140866126543074e+02 2.208906216242284017e+02 2.209545674189814690e+02 2.209347554976851882e+02 2.202022270447531014e+02 2.201481741898148243e+02 2.200673080632716108e+02 2.200076866319444662e+02 2.199650028935185162e+02 2.199338044945987747e+02 2.199180444637345602e+02 2.199033487654320993e+02 2.198573558063271776e+02 2.198203486689814952e+02 2.198020982831790207e+02 2.198131086033950510e+02 2.198461347415123441e+02 2.198935021219135990e+02 2.199539785879629505e+02 2.200053033371913500e+02 2.200777642746913614e+02 2.201349300733024847e+02 2.201864371141975312e+02 2.202517857831790025e+02 2.202974999999999852e+02 2.203523847415123669e+02 2.204105087770061857e+02 2.204767322530863964e+02 2.205520500578703604e+02 2.206221383101851643e+02 2.206100028935185264e+02 2.204540398341049183e+02 2.202020302854938336e+02 2.200045355902777828e+02 2.198478814621913671e+02 2.195573075810185060e+02 2.195584592013888710e+02 2.195302623456790059e+02 2.195123804012345659e+02 2.194967775848765541e+02 2.194636622299382793e+02 2.194317520254629414e+02 2.194066690779320936e+02 2.194162707368827228e+02 2.194514554398148221e+02 2.194904354745370370e+02 2.195553530092592496e+02 2.196198755787037271e+02 2.196779118441358207e+02 2.197519738618827319e+02 2.198156973379629733e+02 2.198798779899691169e+02 2.199424922839505996e+02 2.200011569251543335e+02 2.200723341049382498e+02 2.201520814043209953e+02 2.202314916087962899e+02 2.203195341435184957e+02 2.204140229552469350e+02 2.204485918209876445e+02 2.203260122492283983e+02 2.200847878086419769e+02 2.198902039930555645e+02 2.197556235532407243e+02 2.196688975694444252e+02 2.196059813850308728e+02 2.194457691936728452e+02 2.194906872106481615e+02 2.194893291859567910e+02 2.194833598572531059e+02 2.194442983217592769e+02 2.194309968171296248e+02 2.194443610146604726e+02 2.194925728202160542e+02 2.195456467013888755e+02 2.196156110146604874e+02 2.196874734760802426e+02 2.197608468364197449e+02 2.198246657986111074e+02 2.198975135030864010e+02 2.199672902199073974e+02 2.200386540316358150e+02 2.201179769483024700e+02 2.201984543788580027e+02 2.202772010030864180e+02 2.203670071373456665e+02 2.204563932291666788e+02 2.205566059027777612e+02 2.206532952353395274e+02 2.206992182677469145e+02 2.205917838541666640e+02 2.203730536265432249e+02 2.201644646990740739e+02 2.200274204282407595e+02 2.199480299961419973e+02 2.198957084297839515e+02 2.198306086033950635e+02 2.198565060763888823e+02 2.198375655864197427e+02 2.198008714313271525e+02 2.197744593942901190e+02 2.197823432677469100e+02 2.198179219714506303e+02 2.198739303626543062e+02 2.199360609567901292e+02 2.199927420910493936e+02 2.200596180555555748e+02 2.201246614583333212e+02 2.201827473958333314e+02 2.202387876157407334e+02 2.202923360339506189e+02 2.203594941165123373e+02 2.204299103009259397e+02 2.205008338155864180e+02 2.205830449459876377e+02 2.206662022569444446e+02 2.207494907407407538e+02 2.207476133294753140e+02 2.205936173804012412e+02 2.203579721257715960e+02 2.201489670138888926e+02 2.200158907214506314e+02 2.199280468750000068e+02 2.198672087191358173e+02 2.198360498649691408e+02 2.198332648533950646e+02 2.198259456983024904e+02 2.196766883680555509e+02 2.196985320216049331e+02 2.196857450810184957e+02 2.196998572530864067e+02 2.197364236111110927e+02 2.197865046296296327e+02 2.198457860725308421e+02 2.199100472608024575e+02 2.199757441165123453e+02 2.200354108796296373e+02 2.200922405478395092e+02 2.201656698495370392e+02 2.202323167438271412e+02 2.203029755015431874e+02 2.203714877507715926e+02 2.204526277970678905e+02 2.205202035108024745e+02 2.206019266010802369e+02 2.206985759066357957e+02 2.207365205439814986e+02 2.206125231481481421e+02 2.203666806520061812e+02 2.201400453317901338e+02 2.199607904128086489e+02 2.198324739583333383e+02 2.197380729166666526e+02 2.196555473572530843e+02 2.196085267168209896e+02 2.195875593171296316e+02 2.195476601080247008e+02 2.195074493634259341e+02 2.193543513695987883e+02 2.194021580825617264e+02 2.194327430555555338e+02 2.194881534529320959e+02 2.195505184220679098e+02 2.196048972800925867e+02 2.196642076581790093e+02 2.197340813078703547e+02 2.198086747685185003e+02 2.198622743055555588e+02 2.199310749421296407e+02 2.200000260416666720e+02 2.200716734182098833e+02 2.201661877893518522e+02 2.202524406828703718e+02 2.203370760995370290e+02 2.204489646026234482e+02 2.205559143518518681e+02 2.206531322337962990e+02 2.206565113811728338e+02 2.204835257523148186e+02 2.202187663966049342e+02 2.199908376736111109e+02 2.198326721643518624e+02 2.197193233989197552e+02 2.196154166666666754e+02 2.195231418788580129e+02 2.194873013117284017e+02 2.194658550347222388e+02 2.193970886381173102e+02 2.192671928047839458e+02 2.193160045331790116e+02 2.193440919174382771e+02 2.193883347800925776e+02 2.194489670138888755e+02 2.195259259259259181e+02 2.195923225308642088e+02 2.196586815200617195e+02 2.197272690007716278e+02 2.198121976273148164e+02 2.198848061342592644e+02 2.199619685570987713e+02 2.200521821952160622e+02 2.201449131944444559e+02 2.202528703703703741e+02 2.203613295717592564e+02 2.204722989004629596e+02 2.205897675540123259e+02 2.207027739197530707e+02 2.207928800154321038e+02 2.207545365547839538e+02 2.205389573688271412e+02 2.202708830054012310e+02 2.200705087770061823e+02 2.199490658757715948e+02 2.198701167052469145e+02 2.197981428433641895e+02 2.197530324074074031e+02 2.197335440779320948e+02 2.197067418981481524e+02 2.196800192901234539e+02 2.195312649498456778e+02 2.195679282407407413e+02 2.196061906828703627e+02 2.196387977430555338e+02 2.196889351851851870e+02 2.197444000771604919e+02 2.198071484374999898e+02 2.198683873456790252e+02 2.199349990354938313e+02 2.200044839891975244e+02 2.200661019483024745e+02 2.201272381365740500e+02 2.201997617669753140e+02 2.202753568672839322e+02 2.203489568865740864e+02 2.204308791473765439e+02 2.205317717978394967e+02 2.206190890239197699e+02 2.207220891203703843e+02 2.207479460841049388e+02 2.206147998649691431e+02 2.203722241512345477e+02 2.201562273341049547e+02 2.200080386766975096e+02 2.199180010609567830e+02 2.198585826581789888e+02 2.198416536458333326e+02 2.198435942322530821e+02 2.198318320794753049e+02 2.198039858217592553e+02 2.197608902391975221e+02 2.196358468364197449e+02 2.196809857253086307e+02 2.197204017168209873e+02 2.197709905478395171e+02 2.198305748456790241e+02 2.198981684027777703e+02 2.199627512538580447e+02 2.200269709683641963e+02 2.200960879629629687e+02 2.201594671103395058e+02 2.202210117669753231e+02 2.202799054783950510e+02 2.203579354745370438e+02 2.204258405671296259e+02 2.205033858989197597e+02 2.205823881172839549e+02 2.206803187692901247e+02 2.207227864583333314e+02 2.206303496334876684e+02 2.203746667631172897e+02 2.201228038194444423e+02 2.199220886381172875e+02 2.197906486304012219e+02 2.197001302083333201e+02 2.196323823302469123e+02 2.195902531828703843e+02 2.195746498842592587e+02 2.195326895254629562e+02 2.194332523148148084e+02 2.194168817515432295e+02 2.193691941550925719e+02 2.194361410108024586e+02 2.194776335841049502e+02 2.195318976658950874e+02 2.195824488811728372e+02 2.196442201967592496e+02 2.197078915895061755e+02 2.197613382523148005e+02 2.198156963734568023e+02 2.198819748263888698e+02 2.199580512152777771e+02 2.200381298225308626e+02 2.201079012345678905e+02 2.201905444637345681e+02 2.202685715663580197e+02 2.203608034336419621e+02 2.203943995949074122e+02 2.202787051504629687e+02 2.200185773533950453e+02 2.197644695216049229e+02 2.195702744020061914e+02 2.194193166473765473e+02 2.192904513888888971e+02 2.191728949652777771e+02 2.191044825424382907e+02 2.190719048996913614e+02 2.190303197337962899e+02 2.189846219135802414e+02 2.189385706018518647e+02 2.189242491319444355e+02 2.189399402006172863e+02 2.189651080246913750e+02 2.190467544367283779e+02 2.190894603587962877e+02 2.191578915895061641e+02 2.192295317322530650e+02 2.192998775077160474e+02 2.193624430941358128e+02 2.194325728202160519e+02 2.195139959490740864e+02 2.195961313657407459e+02 2.196900930748456631e+02 2.197799204282407288e+02 2.198688667052469157e+02 2.199728380594135899e+02 2.200871899112654262e+02 2.201814004629629551e+02 2.201462726658950828e+02 2.199441743827160565e+02 2.196850511188271469e+02 2.194803940007716108e+02 2.193411222029320982e+02 2.192275853587962899e+02 2.191460103202160496e+02 2.190903843557098867e+02 2.190719984567901122e+02 2.190559268904320902e+02 2.190254383680555748e+02 2.189926866319444514e+02 2.189803168402777658e+02 2.190066488233024700e+02 2.190574942129629505e+02 2.191316358024691340e+02 2.192199590084876490e+02 2.192949286265432249e+02 2.193484548611110938e+02 2.194131442901234550e+02 2.194798138503086307e+02 2.195507971643518488e+02 2.196305092592592700e+02 2.197038753858024904e+02 2.197899170524691215e+02 2.198779566936728429e+02 2.199672145061728372e+02 2.200547463348765405e+02 2.201594782021604999e+02 2.202690022183641929e+02 2.202723249421296146e+02 2.201274628665123316e+02 2.198739385609567876e+02 2.196624565972222172e+02 2.195015793788580254e+02 2.193979113618827057e+02 2.193310243055555588e+02 2.193027560763889028e+02 2.193010609567901383e+02 2.192931944444444525e+02 2.192537355324074042e+02 2.192000028935185014e+02 2.191998799189814804e+02 2.192503997878086466e+02 2.193117635995370449e+02 2.194146016589506303e+02 2.194930420524691215e+02 2.195438478973765655e+02 2.195973712384259500e+02 2.196457513503086432e+02 2.196953501157407231e+02 2.197673668981481399e+02 2.198319478202160440e+02 2.199030015432098821e+02 2.199761969521604783e+02 2.200481201774691442e+02 2.201381505594135888e+02 2.202182571373456881e+02 2.202716613618827068e+02 2.201706090856481524e+02 2.199189718364197574e+02 2.196512398726851814e+02 2.194547145061728486e+02 2.193322781635802414e+02 2.192361130401234561e+02 2.191636424575617355e+02 2.191253607253086386e+02 2.191114732831790093e+02 2.190971947337963002e+02 2.190386241319444309e+02 2.190018470293209703e+02 2.189986718749999852e+02 2.190392578125000114e+02 2.190780685763888869e+02 2.191471412037037112e+02 2.192126557677469236e+02 2.192780984760802312e+02 2.193608357445987735e+02 2.194130314429012287e+02 2.194733574459876593e+02 2.195305010609567660e+02 2.196070408950617150e+02 2.196961178626543187e+02 2.197889168595679052e+02 2.198762408371913750e+02 2.199615263310185185e+02 2.200495842978395160e+02 2.201281664737654467e+02 2.202263093171296191e+02 2.202263430748456869e+02 2.200438459683641952e+02 2.197758251350308569e+02 2.195370346257716108e+02 2.193832392939814895e+02 2.192688266782407425e+02 2.191720317322530889e+02 2.191003525270061800e+02 2.190658820408950760e+02 2.190470413773148266e+02 2.190198572530864283e+02 2.189908410493827091e+02 2.189887717013888846e+02 2.190267033179012230e+02 2.190695732060185321e+02 2.191376335841049183e+02 2.192238903356481501e+02 2.193145785108024484e+02 2.194676253858024779e+02 2.195650019290123396e+02 2.196269029706789979e+02 2.196959027777777749e+02 2.197785662615740705e+02 2.198622487461419723e+02 2.199541550925925719e+02 2.200421117862654512e+02 2.201172907021604885e+02 2.202017390046296157e+02 2.202829745370370347e+02 2.203686439043209759e+02 2.204591603973765359e+02 2.204229673032407391e+02 2.202260141782407459e+02 2.199750805362654376e+02 2.197814192708333110e+02 2.196552623456790059e+02 2.195728018904320891e+02 2.195065518904320925e+02 2.194653930362654251e+02 2.194600048225308626e+02 2.194557986111111347e+02 2.194238315007715983e+02 2.193909630594135933e+02 2.193903033371913693e+02 2.194733989197530946e+02 2.195511135223765393e+02 2.196324580439814724e+02 2.197238777970678996e+02 2.198637731481481410e+02 2.199245269097222319e+02 2.199987890625000091e+02 2.200606963734568069e+02 2.201291965663580186e+02 2.202167491319444252e+02 2.202987967785493879e+02 2.203738252314815043e+02 2.204662625385802528e+02 2.205569174382715971e+02 2.206603534915123248e+02 2.207372347608024654e+02 2.206927261766975050e+02 2.204932204861111131e+02 2.202649652777777760e+02 2.200995119598765655e+02 2.199968103780864226e+02 2.199473254243827114e+02 2.199326875964506200e+02 2.199486000192900974e+02 2.199651972415123566e+02 2.199512379436728224e+02 2.199100863233024654e+02 2.198793190586419826e+02 2.198786492091049354e+02 2.199052300347222229e+02 2.199664221643518545e+02 2.200343610146605045e+02 2.201061120756172897e+02 2.201826475694444412e+02 2.202411853780864135e+02 2.203565451388888903e+02 2.203997897376543165e+02 2.204725221836419564e+02 2.205382503858024847e+02 2.206004619984567796e+02 2.206923832947530855e+02 2.207875718557098708e+02
1.385585455246913511e-01 1.392891589506172756e-01 1.451692708333333359e-01 1.877854938271605045e-01 2.333082561728395121e-01 2.683492476851851993e-01 2.981360918209876587e-01 3.226273148148148251e-01 3.456867283950617042e-01 3.708617862654320918e-01 3.932653356481481399e-01 4.172714120370370483e-01 4.464144483024691801e-01 4.705251736111111249e-01 5.039674961419752242e-01 5.550790895061727959e-01 5.082238618827160659e-01 4.428129822530864068e-01 3.714891975308641792e-01 2.806520061728395299e-01 1.724889081790123291e-01 1.968986304012345645e-01 1.916512345679012297e-01 1.869704861111111116e-01 1.853641010802469236e-01 1.844092399691358020e-01 1.916965663580247059e-01 2.072598379629629617e-01 2.176138117283950568e-01 2.244540895061728492e-01 2.335797646604938216e-01 2.511241319444444398e-01 2.369700038580246915e-01 2.380690586419752786e-01 2.685715663580247048e-01 2.956042631172839941e-01 3.253443287037036669e-01 3.496141975308642014e-01 3.761313657407407418e-01 4.013556134259259611e-01 4.268557098765431990e-01 4.523326581790123591e-01 4.761771797839506326e-01 5.070871913580247137e-01 5.402512538580246382e-01 5.702338927469136065e-01 5.870365547839506704e-01 5.722468171296295480e-01 5.096465084876543594e-01 4.485874807098765293e-01 4.008338155864197838e-01 3.714949845679012541e-01 3.512471064814814969e-01 3.428356481481481532e-01 3.429031635802469169e-01 3.409563078703704009e-01 3.278853202160493807e-01 3.170645254629629872e-01 3.071981095679012230e-01 3.043484760802468991e-01 3.144159915123456717e-01 3.209968171296296302e-01 3.566560570987654111e-01 3.220196759259259522e-01 3.325260416666666607e-01 3.558719135802468903e-01 3.748442322530864401e-01 3.966724537037036868e-01 4.218677662037036979e-01 4.501359953703704120e-01 4.754205246913580374e-01 5.062663966049382180e-01 5.270056905864197727e-01 5.112837577160493918e-01 4.490562307098765471e-01 3.817756558641975384e-01 3.283232060185185541e-01 2.891010802469136109e-01 2.574908371913580130e-01 2.320389660493827055e-01 2.232373649691357931e-01 2.095187114197530620e-01 2.023779899691358075e-01 1.900323109567901292e-01 1.823095100308642080e-01 1.750323109567901159e-01 1.693132716049382536e-01 1.716739004629629639e-01 1.765571952160493729e-01 1.818436535493827000e-01 1.890543016975308466e-01 1.971262538580246804e-01 2.090813078703703809e-01 2.996754436728394921e-01 2.575028935185185164e-01 2.536361882716049454e-01 2.636651234567901070e-01 2.794897762345678882e-01 2.955893132716049809e-01 3.057021604938272019e-01 2.829378858024691468e-01 2.356052276234567866e-01 1.873842592592592504e-01 1.531881751543209824e-01 1.297690007716049421e-01 1.122318672839506121e-01 1.013994984567901242e-01 9.267554012345678716e-02 8.895158179012345456e-02 8.479600694444444642e-02 7.847559799382716750e-02 7.610677083333333703e-02 7.374373070987655376e-02 7.293836805555554970e-02 1.012659143518518517e-01 9.342206790123455673e-02 1.138927469135802423e-01 1.317293595679012441e-01 1.480169753086419682e-01 1.664086612654320785e-01 1.837543402777777890e-01 2.038160686728394955e-01 2.256317515432098575e-01 2.463695987654320740e-01 3.337548225308642480e-01 3.329976851851851882e-01 3.494844714506172845e-01 3.607127700617284161e-01 3.407291666666666941e-01 2.861651234567901270e-01 2.245785108024691279e-01 1.829692322530864224e-01 1.560874807098765471e-01 1.396296296296296313e-01 1.294912229938271486e-01 1.200192901234567872e-01 1.166174768518518506e-01 1.131669560185185192e-01 1.094425154320987637e-01 1.063450038580246865e-01 1.036752507716049432e-01 1.052854938271604868e-01 1.091073495370370322e-01 1.154899691358024783e-01 1.235614390432098891e-01 1.323582175925925863e-01 1.406635802469135832e-01 1.521759259259259089e-01 1.658897569444444386e-01 1.806664737654321007e-01 1.937205825617283883e-01 2.125217013888889006e-01 2.297704475308642025e-01 2.454923804012345834e-01 2.599151234567901314e-01 2.603621720679012430e-01 2.077464313271604746e-01 1.645196759259259234e-01 1.382122878086419759e-01 1.225101273148148096e-01 1.151032021604938282e-01 1.107503858024691396e-01 1.103988233024691262e-01 1.092134452160493790e-01 1.053163580246913450e-01 9.895929783950617453e-02 9.549334490740740700e-02 9.554446373456790265e-02 1.007759452160493785e-01 1.073283179012345795e-01 1.143803047839506148e-01 1.250038580246913555e-01 1.360296103395061684e-01 1.471349344135802484e-01 1.596334876543209769e-01 1.741787229938271675e-01 1.860161072530863990e-01 2.015051118827160537e-01 2.236569251543209791e-01 2.505733989197531097e-01 2.605338541666666341e-01 2.315518904320987559e-01 1.859389467592592604e-01 1.470886381172839541e-01 1.204374035493827183e-01 1.058188657407407446e-01 9.480179398148147474e-02 8.186149691358024505e-02 7.910156250000000000e-02 7.643084490740739700e-02 7.644627700617283306e-02 7.316261574074074681e-02 7.240017361111111827e-02 7.281539351851851194e-02 7.690393518518519322e-02 8.220437885802468758e-02 8.957031249999999889e-02 9.725212191358025005e-02 1.055709876543209913e-01 1.172752700617284011e-01 1.266251929012345845e-01 1.406664737654320929e-01 1.526408179012345712e-01 1.701446759259259145e-01 1.870645254629629550e-01 1.904176311728394966e-01 1.675086805555555669e-01 1.272077546296296324e-01 9.455102237654321173e-02 7.287471064814815547e-02 6.093653549382715973e-02 5.218798225308641375e-02 4.871431327160493513e-02 4.719666280864197316e-02 4.500626929012346150e-02 4.301263503086420054e-02 4.061824845679012225e-02 5.065441743827159976e-02 4.024112654320987498e-02 4.228395061728394688e-02 4.717737268518518851e-02 5.262008101851851916e-02 6.003086419753086295e-02 6.771942515432098630e-02 7.653404706790123413e-02 8.576147762345678882e-02 9.642168209876543494e-02 1.093913966049382680e-01 1.217906057098765288e-01 1.376793981481481410e-01 1.558680555555555514e-01 1.513927469135802339e-01 1.223953510802469197e-01 8.853925540123455673e-02 6.638406635802468481e-02 5.116898148148148195e-02 4.375819830246913816e-02 3.905767746913579863e-02 3.646942515432099324e-02 3.605661651234567250e-02 3.559702932098765538e-02 3.354986496913580502e-02 3.349633487654321562e-02 3.261043595679012641e-02 3.348910108024691357e-02 3.580873842592592615e-02 3.975019290123456978e-02 6.649980709876542051e-02 5.961660879629629428e-02 6.041087962962963381e-02 6.755787037037037923e-02 7.667968750000000999e-02 8.594376929012345623e-02 9.527150848765432445e-02 1.079759837962963043e-01 1.216772762345679076e-01 1.388396990740740911e-01 1.623398919753086256e-01 1.832257908950617464e-01 1.971219135802469158e-01 1.809293016975308810e-01 1.419632523148148251e-01 1.082672646604938282e-01 8.525028935185184620e-02 7.208670910493826522e-02 6.501205632716049176e-02 6.124662422839506626e-02 5.927228009259258995e-02 5.880738811728395549e-02 5.661410108024691329e-02 5.347704475308642097e-02 5.166859567901235101e-02 5.174864969135802711e-02 5.387104552469135915e-02 5.966628086419752813e-02 6.387345679012346178e-02 7.392602237654320729e-02 7.974199459876542273e-02 1.268870563271604912e-01 1.201538387345678915e-01 1.237649498456790120e-01 1.303554205246913456e-01 1.410677083333333470e-01 1.549271797839506248e-01 1.722145061728395099e-01 1.939308449074074181e-01 2.145949074074073870e-01 2.175028935185185086e-01 1.922844328703703920e-01 1.495891203703703654e-01 1.151080246913580157e-01 9.317418981481481732e-02 8.173659336419752952e-02 7.740451388888888729e-02 7.583863811728394633e-02 7.597993827160494373e-02 7.718171296296295891e-02 7.573061342592592171e-02 7.307195216049383601e-02 7.092062114197530964e-02 7.423225308641975828e-02 7.873505015432098741e-02 8.548804012345678771e-02 9.661506558641975995e-02 1.055396412037036963e-01 1.186135223765432262e-01 1.324715470679012352e-01 1.442611882716049454e-01 1.613647762345678804e-01 2.226982060185185019e-01 2.355835262345678804e-01 2.534341242283950635e-01 2.819454089506172600e-01 3.130815972222222299e-01 3.300458140432098730e-01 3.023572530864197527e-01 2.377546296296296213e-01 1.800554591049382536e-01 1.386969521604938249e-01 1.163006365740740650e-01 1.032238618827160392e-01 9.340277777777777901e-02 8.719135802469135665e-02 8.387538580246912956e-02 8.124758873456790209e-02 7.812403549382716805e-02 7.588204089506171701e-02 7.509259259259258579e-02 7.816647376543210679e-02 8.165268132716048399e-02 8.814621913580247825e-02 9.577112268518518656e-02 1.054947916666666707e-01 1.177580054012345723e-01 1.311410108024691490e-01 1.505169753086419704e-01 1.682904128086419870e-01 1.866999421296296480e-01 2.066560570987654444e-01 2.974286265432098952e-01 2.906047453703703431e-01 3.148982445987654200e-01 3.519135802469136043e-01 3.582880015432098331e-01 3.240268132716049299e-01 2.543219521604938582e-01 1.954562114197530842e-01 1.506587577160493630e-01 1.277777777777777679e-01 1.105897955246913505e-01 1.012659143518518517e-01 9.876060956790122525e-02 9.871093749999999833e-02 9.428288966049382103e-02 9.046826774691359152e-02 8.919367283950617453e-02 8.974826388888888784e-02 9.364486882716049898e-02 9.804783950617283750e-02 1.051528742283950602e-01 1.171286651234567933e-01 1.272878086419753085e-01 1.420211226851851860e-01 1.580275848765431979e-01 1.737996720679012286e-01 1.951856674382716206e-01 2.175646219135802528e-01 2.397955246913580363e-01 2.642365933641975251e-01 2.934582368827160503e-01 4.108815586419753418e-01 3.948611111111111072e-01 3.646889467592592249e-01 2.883627507716049476e-01 2.103395061728395021e-01 1.634886188271605090e-01 1.337639853395061751e-01 1.195437885802469180e-01 1.118542631172839558e-01 1.104885223765432051e-01 1.080960648148148184e-01 1.050684799382716056e-01 1.009596836419753008e-01 9.586419753086419804e-02 9.487895447530865500e-02 9.733796296296295947e-02 1.048885995370370250e-01 1.135450424382716123e-01 1.217896412037037107e-01 1.327748842592592626e-01 1.453559027777777679e-01 1.586217206790123402e-01 1.723128858024691457e-01 1.927203896604938460e-01 2.096768904320987781e-01 2.289385609567901325e-01 2.555328896604938671e-01 2.811458333333333171e-01 3.090461033950617220e-01 3.121706211419753019e-01 1.576760223765432123e-01 1.234428047839506160e-01 1.023828125000000033e-01 8.803771219135803072e-02 7.902922453703703498e-02 7.121576003086420303e-02 6.805025077160493929e-02 6.473476080246913511e-02 6.108024691358025088e-02 5.624758873456790070e-02 5.505883487654320702e-02 5.443287037037037451e-02 5.641975308641974940e-02 5.892554012345679187e-02 6.347559799382716805e-02 7.099054783950617398e-02 7.883873456790123357e-02 8.223910108024691523e-02 9.246913580246912678e-02 1.008810763888888795e-01 1.121021412037037090e-01 1.232195216049382647e-01 1.383545524691358053e-01 1.562996720679012130e-01 1.762789351851851705e-01 1.957200038580246826e-01 2.029031635802469036e-01 1.768373842592592671e-01 1.258039158950617353e-01 8.661361882716049621e-02 6.220341435185185175e-02 4.572579089506172839e-02 3.688271604938271608e-02 3.217737268518518212e-02 3.051938657407407551e-02 3.024016203703703415e-02 2.901041666666666699e-02 2.696373456790123607e-02 2.658227237654320688e-02 2.718123070987654363e-02 2.809944058641975287e-02 3.018518518518518642e-02 3.325279706790123385e-02 3.721402391975308505e-02 4.197916666666666463e-02 4.702401620370370849e-02 5.236014660493826939e-02 5.967255015432098436e-02 6.654706790123457449e-02 7.629436728395061484e-02 8.605034722222222598e-02 9.943865740740739922e-02 1.127420910493827227e-01 1.312495177469135965e-01 1.527999614197530776e-01 1.651070601851852004e-01 1.489935378086419682e-01 1.110286458333333420e-01 7.556375385802469036e-02 5.364245756172839746e-02 4.283082561728394910e-02 3.694299768518518462e-02 3.714265046296296585e-02 3.038628472222222598e-02 2.917968750000000250e-02 2.758921682098765607e-02 2.715808256172839649e-02 2.564236111111111230e-02 2.656442901234568055e-02 2.809847608024691398e-02 3.046682098765432153e-02 3.601562500000000250e-02 3.942129629629630150e-02 4.584635416666666546e-02 5.356819058641975467e-02 6.258150077160493097e-02 7.089313271604938405e-02 8.004388503086419526e-02 9.338204089506173255e-02 1.068108603395061668e-01 1.222771990740740694e-01 1.379465663580246859e-01 1.602946566358024738e-01 1.848418209876543095e-01 2.123138503086419715e-01 2.286168981481481455e-01 2.083786651234567910e-01 1.645688657407407274e-01 1.179446373456790043e-01 8.899932484567900370e-02 6.963927469135801351e-02 6.086998456790122802e-02 6.323109567901234740e-02 5.575954861111111216e-02 5.217544367283950824e-02 4.870129243827159976e-02 4.605709876543209735e-02 4.594521604938271025e-02 4.831018518518518517e-02 5.137442129629629650e-02 5.716145833333333148e-02 6.452160493827160948e-02 7.293836805555554970e-02 8.251446759259259411e-02 9.380160108024691856e-02 1.084760802469135754e-01 1.212012924382715878e-01 1.340412808641975317e-01 1.518137538580247026e-01 1.714462770061728480e-01 1.901051311728395310e-01 2.125593171296296380e-01 2.419343171296296224e-01 2.503298611111111072e-01 2.216618441358024771e-01 1.620365547839506259e-01 1.123707561728395088e-01 8.323157793209876032e-02 6.849006558641976272e-02 5.906105324074074209e-02 5.509259259259259578e-02 5.401861496913580585e-02 5.261911651234568027e-02 5.832224151234567666e-02 4.734085648148148029e-02 4.327980324074073848e-02 4.290509259259259189e-02 4.491367669753086600e-02 4.871768904320988164e-02 5.391589506172839164e-02 6.102092978395061429e-02 6.904947916666666352e-02 7.921248070987654821e-02 9.013503086419752397e-02 1.014115547839506137e-01 1.133805941358024677e-01 1.284755979938271564e-01 1.451374421296296180e-01 1.630541087962962821e-01 1.870490933641975329e-01 2.140051118827160370e-01 2.434452160493827400e-01 2.598471257716049587e-01 2.368436535493827211e-01 1.763266782407407474e-01 1.127681327160493935e-01 7.670380015432098908e-02 5.883921682098765260e-02 4.776331018518518989e-02 4.125241126543210263e-02 3.630738811728394938e-02 3.517409336419752980e-02 3.364776234567901092e-02 3.241657021604937849e-02 3.623263888888889062e-02 3.033371913580246854e-02 2.963252314814814395e-02 3.109809027777777832e-02 3.479745370370369850e-02 3.883150077160493763e-02 4.400848765432099213e-02 5.148389274691357598e-02 5.779706790123456672e-02 6.674672067901235573e-02 7.741464120370369906e-02 8.810908564814814992e-02 1.011646412037037063e-01 1.143856095679012252e-01 1.317356288580247003e-01 1.482142168209876765e-01 1.722164351851852016e-01 2.004779128086419671e-01 2.289756944444444331e-01 2.423731674382715862e-01 2.073533950617283961e-01 1.437712191358024860e-01 9.020688657407407995e-02 6.355709876543209902e-02 5.027247299382716500e-02 4.125723379629629706e-02 3.542968750000000111e-02 3.236014660493826550e-02 3.000385802469136137e-02 2.697145061728395063e-02 3.404079861111111022e-02 2.701967592592592615e-02 2.557339891975308685e-02 2.820071373456790181e-02 3.092496141975308727e-02 3.575713734567901453e-02 4.129243827160493374e-02 4.759114583333333426e-02 5.397135416666666574e-02 6.571566358024691357e-02 7.557629243827160281e-02 8.764419367283950157e-02 1.032952353395061723e-01 1.207552083333333359e-01 1.396113040123456717e-01 1.623519483024691290e-01 1.893238811728395199e-01 2.195408950617283861e-01 2.531510416666666319e-01 2.853906250000000089e-01 2.832282021604938249e-01 2.299083719135802395e-01 1.591681134259259334e-01 1.115287422839506132e-01 8.567660108024691135e-02 7.126012731481481954e-02 6.126109182098765649e-02 5.478250385802468925e-02 5.152826003086419249e-02 4.943431712962963187e-02 4.589988425925925486e-02 5.093315972222222515e-02 4.331983024691358347e-02 4.168547453703703998e-02 4.439670138888888312e-02 4.923032407407407912e-02 5.351273148148148751e-02 6.115740740740740339e-02 6.866994598765431557e-02 7.839072145061729002e-02 8.845630787037037090e-02 1.012364969135802345e-01 1.139887152777777773e-01 1.297950424382715851e-01 1.473558063271604990e-01 1.646788194444444575e-01 1.873051697530864201e-01 2.148736496913580263e-01 2.414293981481481222e-01 2.740031828703703431e-01 2.902107445987653911e-01 2.619690393518518401e-01 1.972675540123456639e-01 1.361684992283950790e-01 9.938512731481481677e-02 8.133246527777777957e-02 7.187403549382716250e-02 6.534722222222222321e-02 6.510320216049382547e-02 6.385706018518519378e-02 6.213686342592592005e-02 5.911120756172839885e-02 6.484326774691356876e-02 5.686631944444444503e-02 5.691984953703704136e-02 6.115837191358024227e-02 6.813753858024691745e-02 7.678530092592592005e-02 8.717930169753085323e-02 9.778886959876544049e-02 1.093721064814814903e-01 1.229788773148147996e-01 1.357373649691357986e-01 1.530709876543209780e-01 1.710961612654320896e-01 1.922718942901234518e-01 2.161144868827160614e-01 2.425376157407407585e-01 2.760132137345678860e-01 2.992785493827160859e-01 2.740441743827160548e-01 2.086024305555555514e-01 1.398379629629629695e-01 9.523389274691357320e-02 7.176408179012344624e-02 5.798562885802469036e-02 4.952112268518518712e-02 4.529899691358024727e-02 4.400800540123456922e-02 4.120225694444444586e-02 3.567177854938271414e-02 3.482301311728395327e-02 4.596354166666666990e-02 4.099440586419753063e-02 4.163483796296296724e-02 4.436776620370370267e-02 4.891830632716048788e-02 5.452353395061727837e-02 6.215229552469134916e-02 7.138117283950617953e-02 7.975887345679012752e-02 8.905044367283951323e-02 1.016763117283950579e-01 1.160310570987654333e-01 1.322159529320987570e-01 1.495187114197530920e-01 1.716835455246913666e-01 1.962239583333333370e-01 2.114467592592592649e-01 1.902734375000000033e-01 1.366285686728395121e-01 8.224103009259259300e-02 5.336853780864198038e-02 3.845196759259259661e-02 2.970968364197530687e-02 2.428915895061728100e-02 2.120273919753086489e-02 2.062499999999999750e-02 1.974585262345678743e-02 1.801938657407407482e-02 1.644579475308641930e-02 1.668788580246913580e-02 1.716338734567901189e-02 2.717255015432099019e-02 2.243682484567901050e-02 2.379484953703703623e-02 2.526861496913580113e-02 2.935522762345679076e-02 3.394579475308642097e-02 3.910252700617284499e-02 4.496576003086420054e-02 5.277006172839505960e-02 6.218508873456790598e-02 7.269917052469135332e-02 8.491174768518519600e-02 9.863233024691357709e-02 1.140330825617283939e-01 1.345167824074073870e-01 1.533309220679012486e-01 1.500270061728395110e-01 1.209992283950617337e-01 8.050250771604937350e-02 5.214313271604938127e-02 3.908516589506172423e-02 3.060185185185184883e-02 2.550443672839506140e-02 2.293788580246913789e-02 2.144145447530864182e-02 2.146074459876542995e-02 2.092447916666666588e-02 1.929446373456790431e-02 1.915171682098765552e-02 2.023967978395061623e-02 2.163001543209876545e-02 3.595871913580246659e-02 3.130353009259258940e-02 3.240403163580247298e-02 3.605131172839506210e-02 4.062692901234567916e-02 4.709297839506172700e-02 5.265721450617284055e-02 6.168547453703703692e-02 7.226514274691357709e-02 8.510706018518518490e-02 9.823302469135802850e-02 1.137003279320987631e-01 1.294950810185185319e-01 1.501769868827160515e-01 1.748042052469135910e-01 1.862418016975308510e-01 1.649006558641975262e-01 1.173090277777777690e-01 7.632137345679011753e-02 5.529513888888888673e-02 4.361979166666666435e-02 3.748890817901234102e-02 3.567081404320987525e-02 3.413435570987654460e-02 3.413146219135802101e-02 3.324749228395061651e-02 3.030092592592592560e-02 2.946903935185185217e-02 3.253520447530864473e-02 3.732638888888888812e-02 5.962239583333334147e-02 5.381076388888889062e-02 5.567081404320987914e-02 6.091917438271605284e-02 6.584056712962962910e-02 7.495611496913578975e-02 8.359230324074073959e-02 9.283613040123456228e-02 1.048861882716049382e-01 1.185807291666666624e-01 1.357851080246913755e-01 1.570760995370370505e-01 1.788787615740740911e-01 1.981881751543209946e-01 1.878033371913580274e-01 1.357658179012345701e-01 8.630063657407407995e-02 5.633728780864197261e-02 4.324315200617284000e-02 3.549720293209876476e-02 3.041329089506172520e-02 2.807532793209876337e-02 2.786795910493827105e-02 2.721691743827160670e-02 2.526716820987654280e-02 2.413001543209876421e-02 2.475212191358024463e-02 2.510561342592592532e-02 2.686390817901234546e-02 3.103298611111111188e-02 3.505979938271604895e-02 5.576485339506172950e-02 4.944058641975308810e-02 4.980179398148148334e-02 5.423177083333333148e-02 5.933352623456789737e-02 6.983024691358025171e-02 7.980131172839506626e-02 9.235725308641976050e-02 1.080193865740740750e-01 1.232344714506172917e-01 1.439872685185185075e-01 1.646252893518518334e-01 1.918431712962962998e-01 1.968957368827160270e-01 1.649411651234568010e-01 1.081828703703703737e-01 6.881847993827161503e-02 4.813946759259259134e-02 3.814766589506173033e-02 3.169077932098765538e-02 2.694589120370370280e-02 2.472704475308641972e-02 2.453076774691357806e-02 2.415364583333333426e-02 2.307870370370370544e-02 2.235869984567901217e-02 2.301890432098765288e-02 2.499131944444444448e-02 2.853057484567901245e-02 3.188078703703703387e-02 3.590518904320987720e-02 6.791714891975308976e-02 6.264998070987654044e-02 6.530237268518518379e-02 7.390287422839506015e-02 8.382716049382715751e-02 9.388454861111111827e-02 1.097111304012345773e-01 1.287220293209876409e-01 1.495601851851851849e-01 1.700212191358024816e-01 1.972810570987654499e-01 2.226760223765432145e-01 2.513753858024690979e-01 2.506664737654321073e-01 2.059563078703703920e-01 1.418378665123457005e-01 9.635898919753085878e-02 7.177420910493827189e-02 5.839361496913580279e-02 4.983844521604938183e-02 4.639178240740740589e-02 4.509548611111111049e-02 4.447000385802469397e-02 4.284288194444444559e-02 4.103443287037037562e-02 4.140866126543209930e-02 4.648389274691357848e-02 5.169945987654320924e-02 5.956548996913580557e-02 6.897907021604937627e-02 1.156071566358024688e-01 1.119859182098765366e-01 1.184809027777777718e-01 1.296629050925925952e-01 1.432933063271604746e-01 1.627092978395061895e-01 1.861294367283950479e-01 2.112355324074074170e-01 2.403636188271605079e-01 2.750863233024691268e-01 3.112287808641975295e-01 3.493489583333333481e-01 3.468012152777777968e-01 2.858101851851851949e-01 2.112953317901234696e-01 1.581303047839506259e-01 1.282127700617284038e-01 1.158391203703703770e-01 1.082759452160493852e-01 1.101851851851851916e-01 1.114221643518518573e-01 1.084321952160493818e-01 1.050925925925925986e-01 1.004412615740740700e-01 1.006727430555555552e-01 1.039993248456790170e-01 1.123929398148148240e-01 1.243798225308642008e-01 1.380044367283950746e-01 1.549922839506172878e-01 1.729296874999999845e-01 2.470679012345678716e-01 2.422931134259259101e-01 2.559717399691358031e-01 2.742486496913580374e-01 2.991131365740740677e-01 3.325323109567901447e-01 3.760392554012345623e-01
1.261751591435185205e+01 1.259085165895061742e+01 1.248172453703703688e+01 1.212281346450617292e+01 1.189864342206790049e+01 1.179871383101851734e+01 1.178226803626543173e+01 1.178016830632715894e+01 1.178879147376543202e+01 1.180051215277777743e+01 1.182242717978395063e+01 1.184516734182098752e+01 1.184834153163580339e+01 1.185454764660493865e+01 1.187466820987654259e+01 1.191500434027777722e+01 1.180539592978395014e+01 1.167087480709876601e+01 1.152656539351851706e+01 1.134636574074074211e+01 1.111046344521604823e+01 1.123743827160493680e+01 1.124343605324074069e+01 1.128164737654321037e+01 1.133581259645061756e+01 1.138741030092592688e+01 1.142914303626543315e+01 1.147170765817901206e+01 1.150706211419753089e+01 1.154451871141975339e+01 1.157674864969135875e+01 1.170193383487654337e+01 1.169256221064814838e+01 1.167291763117283843e+01 1.170483699845679126e+01 1.173924672067901120e+01 1.175564380787037067e+01 1.177475694444444443e+01 1.178468412422839506e+01 1.179343315972222150e+01 1.180432870370370324e+01 1.180287567515432201e+01 1.180195216049382800e+01 1.180984037422839528e+01 1.181627893518518491e+01 1.183855709876543116e+01 1.184404755015432009e+01 1.178446711033950578e+01 1.171404369212962848e+01 1.167325231481481396e+01 1.163606240354938315e+01 1.165742380401234435e+01 1.165944058641975367e+01 1.168099922839506100e+01 1.170512490354938251e+01 1.170472415123456855e+01 1.168462480709876594e+01 1.167470196759259338e+01 1.166766444830246918e+01 1.166077498070987772e+01 1.167109953703703695e+01 1.167092592592592659e+01 1.173376832561728378e+01 1.167569974922839471e+01 1.169725887345678927e+01 1.173634645061728499e+01 1.174825086805555507e+01 1.175070842978395014e+01 1.175665653935185162e+01 1.177556520061728307e+01 1.177375530478395049e+01 1.178650752314814909e+01 1.179926504629629491e+01 1.175020109953703695e+01 1.165948254243827265e+01 1.158359182098765494e+01 1.154092737268518576e+01 1.155447386188271608e+01 1.155853346836419782e+01 1.154572096836419703e+01 1.155517939814814810e+01 1.156122492283950720e+01 1.156668981481481495e+01 1.156410783179012292e+01 1.155023533950617320e+01 1.153156442901234513e+01 1.153697145061728335e+01 1.154035831404321044e+01 1.155168692129629626e+01 1.155808738425925952e+01 1.157984471450617292e+01 1.159391396604938329e+01 1.159468364197530832e+01 1.162674623842592503e+01 1.160044994212962877e+01 1.159691792052469062e+01 1.160489583333333385e+01 1.160034963348765302e+01 1.161215084876543280e+01 1.161187451774691404e+01 1.155554060570987751e+01 1.146174286265432052e+01 1.139808352623456855e+01 1.136671344521604787e+01 1.135802758487654351e+01 1.133642457561728278e+01 1.132881124614197610e+01 1.132380642361111178e+01 1.131362895447530903e+01 1.129557918595678956e+01 1.126434558256172735e+01 1.125545524691358068e+01 1.123840470679012249e+01 1.124922067901234435e+01 1.149794415509259338e+01 1.178739342206790042e+01 1.200851514274691390e+01 1.211157407407407405e+01 1.214624276620370402e+01 1.216168402777777757e+01 1.218097415123456884e+01 1.218654128086419597e+01 1.221017119984567856e+01 1.224320071373456820e+01 1.241713059413580211e+01 1.241283082561728435e+01 1.244482976466049351e+01 1.244840133101851798e+01 1.241075713734567820e+01 1.238122492283950749e+01 1.235114969135802454e+01 1.232389612268518420e+01 1.230544029706790177e+01 1.227081259645061628e+01 1.225724151234567927e+01 1.223820264274691283e+01 1.222338541666666778e+01 1.219584828317901248e+01 1.220460358796296241e+01 1.217171778549382744e+01 1.217268036265432052e+01 1.215691116898148039e+01 1.216094521604938272e+01 1.215581645447530867e+01 1.215939236111111121e+01 1.215746720679012327e+01 1.217195360725308717e+01 1.219343267746913639e+01 1.220448736496913611e+01 1.219537905092592567e+01 1.219898967978394921e+01 1.220682822145061763e+01 1.220313319830246890e+01 1.222685474537036932e+01 1.222250048225308561e+01 1.218738570601851734e+01 1.219622202932098887e+01 1.219700569058641904e+01 1.218912471064814795e+01 1.216666956018518420e+01 1.213898919753086503e+01 1.214404079861111008e+01 1.212517939814814838e+01 1.211852044753086410e+01 1.210055989583333336e+01 1.208728395061728378e+01 1.207942611882716122e+01 1.210078269675925888e+01 1.209218653549382694e+01 1.207592544367284049e+01 1.208106674382716150e+01 1.209123360339506092e+01 1.208958767361111164e+01 1.209812885802469040e+01 1.211879677854938109e+01 1.210528645833333350e+01 1.213891203703703603e+01 1.215798514660493801e+01 1.217578944830246890e+01 1.218354263117283942e+01 1.218236207561728435e+01 1.216734471450617328e+01 1.215281298225308682e+01 1.213984953703703695e+01 1.213938705632716086e+01 1.212406876929012256e+01 1.200432822145061706e+01 1.202231577932098716e+01 1.201914689429012384e+01 1.200525752314814909e+01 1.197173177083333329e+01 1.196223042052469232e+01 1.199107445987654330e+01 1.195701871141975303e+01 1.197384355709876580e+01 1.198655623070987808e+01 1.198516541280864089e+01 1.198707658179012192e+01 1.199915027006172963e+01 1.201984471450617242e+01 1.201731915509259174e+01 1.203339313271604816e+01 1.204986641589506213e+01 1.207642119984567763e+01 1.211403983410493801e+01 1.209405719521604894e+01 1.206890432098765409e+01 1.204027584876543244e+01 1.202782889660493737e+01 1.201742139274691290e+01 1.200911072530864132e+01 1.198688416280864288e+01 1.197067129629629711e+01 1.197511140046296241e+01 1.195903452932098787e+01 1.193583285108024761e+01 1.193529899691358054e+01 1.187414834104938244e+01 1.185665605709876580e+01 1.184405719521604894e+01 1.185634741512345514e+01 1.185521267361111164e+01 1.187526620370370445e+01 1.190353443287037116e+01 1.191426938657407497e+01 1.192959924768518576e+01 1.196153163580246925e+01 1.197970052083333314e+01 1.200815297067901177e+01 1.202755401234567856e+01 1.203223427854938343e+01 1.202750385802469069e+01 1.200128134645061628e+01 1.200769820601851734e+01 1.198240065586419689e+01 1.197301745756172764e+01 1.196451822916666607e+01 1.192209876543209823e+01 1.190104070216049337e+01 1.188366898148148110e+01 1.188486496913580304e+01 1.189056134259259245e+01 1.188105324074074076e+01 1.187492621527777814e+01 1.186978153935185176e+01 1.188632185570987687e+01 1.188618875385802554e+01 1.196715856481481488e+01 1.196882089120370374e+01 1.198621238425925917e+01 1.198820457175925824e+01 1.199667872299382765e+01 1.198847945601851706e+01 1.200978057484567962e+01 1.202995225694444592e+01 1.204151668595678970e+01 1.206099537037037095e+01 1.210217303240740705e+01 1.212658275462963076e+01 1.214298514660493744e+01 1.211682098765431981e+01 1.210238570601851826e+01 1.208749903549382765e+01 1.207952160493827165e+01 1.207215808256172807e+01 1.204398148148148096e+01 1.203652054398148152e+01 1.203076967592592617e+01 1.200701822916666650e+01 1.199639274691358004e+01 1.200512538580247046e+01 1.197900318287037003e+01 1.198289834104938301e+01 1.197420476466049344e+01 1.199381462191358061e+01 1.199382957175925846e+01 1.199452787422839606e+01 1.201003086419753174e+01 1.212698784722222278e+01 1.211974826388888893e+01 1.211949942129629676e+01 1.213695360725308525e+01 1.213854986496913568e+01 1.214751784336419860e+01 1.219256317515432109e+01 1.220132089120370367e+01 1.218241753472222122e+01 1.218882908950617328e+01 1.218026427469135875e+01 1.216848186728395120e+01 1.214304108796296333e+01 1.212102189429012356e+01 1.212354359567901341e+01 1.210728491512345606e+01 1.209746672453703731e+01 1.210548900462963040e+01 1.209450617283950713e+01 1.208235387731481580e+01 1.208552662037036995e+01 1.207085744598765409e+01 1.208067177854938201e+01 1.207614197530864253e+01 1.209450279706790177e+01 1.210139901620370217e+01 1.211407021604938272e+01 1.212607011959876502e+01 1.212774594907407533e+01 1.216193142361110979e+01 1.217895495756172863e+01 1.227852816358024768e+01 1.228724151234567863e+01 1.230100308641975282e+01 1.232878954475308753e+01 1.234865788966049216e+01 1.234151620370370317e+01 1.232237654320987552e+01 1.229820312500000057e+01 1.227322193287037067e+01 1.225333285108024661e+01 1.223655526620370360e+01 1.221017119984567856e+01 1.218906828703703660e+01 1.217912422839506092e+01 1.216552372685185190e+01 1.216426215277777878e+01 1.213963734567901120e+01 1.212146267361111107e+01 1.212369598765432066e+01 1.211901138117283949e+01 1.212864776234567898e+01 1.214453896604938343e+01 1.214097029320987708e+01 1.214540268132715894e+01 1.215092399691357983e+01 1.218652054398148188e+01 1.219434847608024697e+01 1.220837866512345649e+01 1.224277874228395113e+01 1.224944685570987701e+01 1.236927179783950592e+01 1.237214940200617264e+01 1.239850019290123484e+01 1.240856192129629676e+01 1.240431375385802326e+01 1.239100887345679070e+01 1.236089265046296326e+01 1.233996817129629520e+01 1.231866898148148159e+01 1.229271556712962976e+01 1.227722415123456656e+01 1.225112268518518555e+01 1.222833574459876438e+01 1.220667582947530860e+01 1.220940827546296426e+01 1.218594810956790120e+01 1.218903694058641918e+01 1.218422550154321016e+01 1.217634211033950642e+01 1.217732253086419725e+01 1.218355275848765373e+01 1.216915509259259309e+01 1.220146942515432009e+01 1.221500530478395063e+01 1.221976321373456820e+01 1.223290461033950649e+01 1.226068769290123406e+01 1.227039930555555536e+01 1.228430459104938244e+01 1.231321373456790091e+01 1.231189091435185290e+01 1.248315682870370402e+01 1.246685522762345677e+01 1.244227044753086275e+01 1.241770592206790091e+01 1.237956790123456763e+01 1.234512635030864125e+01 1.231474681712963104e+01 1.228444974922839528e+01 1.225890046296296276e+01 1.223462480709876665e+01 1.223349054783950685e+01 1.221429687499999872e+01 1.218948640046296283e+01 1.217239004629629662e+01 1.216961853780864189e+01 1.217279899691358125e+01 1.215809751157407348e+01 1.218358217592592574e+01 1.220347125771604979e+01 1.219902343749999929e+01 1.221701630015432016e+01 1.220431278935185126e+01 1.220534915123456798e+01 1.223280237268518533e+01 1.224022665895061657e+01 1.226137008101851933e+01 1.226915219907407462e+01 1.229623842592592631e+01 1.231882330246913604e+01 1.231189139660493836e+01 1.213899112654321044e+01 1.215032841435185063e+01 1.213908757716049358e+01 1.212124951774691439e+01 1.210571952160493936e+01 1.208044897762345649e+01 1.207260802469135719e+01 1.206137779706790170e+01 1.204775270061728421e+01 1.203921151620370367e+01 1.203985966435185162e+01 1.202528742283950614e+01 1.203566550925925860e+01 1.203505738811728421e+01 1.203692756558642074e+01 1.202843267746913725e+01 1.202314284336419625e+01 1.205767168209876594e+01 1.207018759645061756e+01 1.210151572145061749e+01 1.210080343364197475e+01 1.211302131558641904e+01 1.212483506944444400e+01 1.214790364583333293e+01 1.216866705246913583e+01 1.220153501157407305e+01 1.220292968749999929e+01 1.218324990354938109e+01 1.214073784722222271e+01 1.210806086033950635e+01 1.206410011574074126e+01 1.191027536651234442e+01 1.189949893904321065e+01 1.188207851080247046e+01 1.186702980324074019e+01 1.185410686728395113e+01 1.183181423611111072e+01 1.182853925540123363e+01 1.184783516589506291e+01 1.183990017361111136e+01 1.183865981867283956e+01 1.182796344521604937e+01 1.184823881172839499e+01 1.183648341049382680e+01 1.187526186342592638e+01 1.190085503472222150e+01 1.190535783179012341e+01 1.193508680555555479e+01 1.196060329861111171e+01 1.197322434413580261e+01 1.197706597222222236e+01 1.200010223765432116e+01 1.203306471836419789e+01 1.205906973379629576e+01 1.207653308256172764e+01 1.208601273148148003e+01 1.206972704475308689e+01 1.206860435956790134e+01 1.205313850308641932e+01 1.203274594907407469e+01 1.200344859182098745e+01 1.196601610725308618e+01 1.187960792824074119e+01 1.188304398148148167e+01 1.184519675925925952e+01 1.184333236882715923e+01 1.185052083333333250e+01 1.183517119984567856e+01 1.184231674382716015e+01 1.184693817515432102e+01 1.185682436342592538e+01 1.185871865354938315e+01 1.186838107638888928e+01 1.188677565586419860e+01 1.191590760030864260e+01 1.193836419753086275e+01 1.195661747685185183e+01 1.198350356867284106e+01 1.201160445601851734e+01 1.203738570601851876e+01 1.206095679012345734e+01 1.209205295138888836e+01 1.212162229938271629e+01 1.214099054783950749e+01 1.216003858024691375e+01 1.218642071759259338e+01 1.217903260030864132e+01 1.216831790123456791e+01 1.212792052469135839e+01 1.211543402777777878e+01 1.209977478780864146e+01 1.207322241512345684e+01 1.203786072530864182e+01 1.201005160108024761e+01 1.199211805555555443e+01 1.196326292438271466e+01 1.193889853395061706e+01 1.195198929398148202e+01 1.197641975308641982e+01 1.197939814814814774e+01 1.198186535493827165e+01 1.198678771219135797e+01 1.201051552854938365e+01 1.202826581790123406e+01 1.204285734953703724e+01 1.204943287037037081e+01 1.206471064814814831e+01 1.207825954861111128e+01 1.209604118441358089e+01 1.212803578317901376e+01 1.216449508101851862e+01 1.220000819830246819e+01 1.222930603780864089e+01 1.220957995756172743e+01 1.219937499999999986e+01 1.216517891589506029e+01 1.215553964120370445e+01 1.211622492283950692e+01 1.207883439429012284e+01 1.204294222608024612e+01 1.205125868055555571e+01 1.202550202546296276e+01 1.200821759259259203e+01 1.192665605709876608e+01 1.193210021219135797e+01 1.193395013503086410e+01 1.192855999228395092e+01 1.191144145447530889e+01 1.191160059799382687e+01 1.191995515046296283e+01 1.193103973765432180e+01 1.194826195987654316e+01 1.196478009259259245e+01 1.195999517746913554e+01 1.199618827160493773e+01 1.201692322530864132e+01 1.202504292052469204e+01 1.205431664737654351e+01 1.206755883487654302e+01 1.208447675540123534e+01 1.211495852623456848e+01 1.213758101851851734e+01 1.215490065586419632e+01 1.213630979938271537e+01 1.211865740740740627e+01 1.210524836033950713e+01 1.206700279706790013e+01 1.202927517361111143e+01 1.199757426697530960e+01 1.195307146990740854e+01 1.191848090277777850e+01 1.191040509259259217e+01 1.189860194830246876e+01 1.186839554398148167e+01 1.177958381558642031e+01 1.178993393132715894e+01 1.176882233796296262e+01 1.178035638503086346e+01 1.177503713348765402e+01 1.178845052083333300e+01 1.180494743441358096e+01 1.182070457175925959e+01 1.184326581790123534e+01 1.186742139274691255e+01 1.189484905478395049e+01 1.190619743441358125e+01 1.193474633487654302e+01 1.196023389274691340e+01 1.196658323688271608e+01 1.200875289351851904e+01 1.205115162037036924e+01 1.208674575617284042e+01 1.211239631558641960e+01 1.213852478780864175e+01 1.210798225308641918e+01 1.209639805169753046e+01 1.206952208719135911e+01 1.201637683256172906e+01 1.198021894290123335e+01 1.193199990354938400e+01 1.190027729552469005e+01 1.186751012731481580e+01 1.185926167052469005e+01 1.181998746141975332e+01 1.178791087962962969e+01 1.177606819058641996e+01 1.174640094521604894e+01 1.174392891589506149e+01 1.175735966435185098e+01 1.176726803626543116e+01 1.178554494598765423e+01 1.178770640432098915e+01 1.179156587577160487e+01 1.182845437885802475e+01 1.184636043595678956e+01 1.187045235339506100e+01 1.190238377700617356e+01 1.194136381172839556e+01 1.198112413194444592e+01 1.202041811342592581e+01 1.205166280864197503e+01 1.208662422839506156e+01 1.212479118441357961e+01 1.216461033950617399e+01 1.217610484182098851e+01 1.214180652006172778e+01 1.211758487654321037e+01 1.206408805941358153e+01 1.205091917438271665e+01 1.201602864583333385e+01 1.198703076774691390e+01 1.195357590663580183e+01 1.195196277006172814e+01 1.193006172839506185e+01 1.192031346450617235e+01 1.184172357253086361e+01 1.183474971064814874e+01 1.181560763888889021e+01 1.181974344135802468e+01 1.181079378858024675e+01 1.184790075231481588e+01 1.185259500385802589e+01 1.186955343364197546e+01 1.187213396990740755e+01 1.188246624228395021e+01 1.190424527391975396e+01 1.192721932870370338e+01 1.195609374999999908e+01 1.198234085648148195e+01 1.199401765046296298e+01 1.202352478780864153e+01 1.204599729938271579e+01 1.207067418981481488e+01 1.211267216435185290e+01 1.212394627700617278e+01 1.212691502700617363e+01 1.209831163194444592e+01 1.205948206018518576e+01 1.205018952546296340e+01 1.202062837577160614e+01 1.198595968364197439e+01 1.196998890817901184e+01 1.194758391203703773e+01 1.192616994598765423e+01 1.191061969521604880e+01 1.191505979938271587e+01 1.186973042052469296e+01 1.186972222222222229e+01 1.187294319058642067e+01 1.186383535879629747e+01 1.186040509259259146e+01 1.188150462962962983e+01 1.188562934027777729e+01 1.189401041666666714e+01 1.191737509645061799e+01 1.192504099151234698e+01 1.195072916666666707e+01 1.197336564429012284e+01 1.201129388503086304e+01 1.201960117669753103e+01 1.202819010416666679e+01 1.204891589506172878e+01 1.207341676311728307e+01 1.209336709104938201e+01 1.208135079089506192e+01 1.206948736496913632e+01 1.204468074845679126e+01 1.199859085648148138e+01 1.195095968364197603e+01 1.193217013888888900e+01 1.190961323302469133e+01 1.186519868827160451e+01 1.185240258487654330e+01 1.182337094907407504e+01 1.179467303240740783e+01 1.178941984953703681e+01 1.173082754629629676e+01 1.173844521604938329e+01 1.173378279320987616e+01 1.171848331404321009e+01 1.174351755401234598e+01 1.173995900848765395e+01 1.174719955632716051e+01 1.177093074845678977e+01 1.178944830246913611e+01 1.180809799382715930e+01 1.185061873070987737e+01 1.186788049768518505e+01 1.186871479552469033e+01 1.189042775848765565e+01 1.193290943287036932e+01 1.197640576774691290e+01 1.198466965663580375e+01 1.196623408564814817e+01 1.194113956404321009e+01 1.190714313271604929e+01 1.185894917052469033e+01 1.180654947916666586e+01 1.176095871913580204e+01 1.172474488811728399e+01 1.169115210262345705e+01 1.164958285108024683e+01 1.164669319058642039e+01 1.161496720679012284e+01 1.161588396990740790e+01 1.157935667438271565e+01 1.155162663966049408e+01 1.158610194830246876e+01 1.160518711419753046e+01 1.156899643132716093e+01 1.157766155478395120e+01 1.158382330246913661e+01 1.161022521219135939e+01 1.160132089120370402e+01 1.165160686728395056e+01 1.167457175925926016e+01 1.169050491898148003e+01 1.171966483410493787e+01 1.175309702932098688e+01 1.178333574459876409e+01 1.181181037808642031e+01 1.185996768904320930e+01 1.188589120370370367e+01 1.189991560570987517e+01 1.186369116512345734e+01 1.185458863811728314e+01 1.181916811342592588e+01 1.177670717592592631e+01 1.173221836419753039e+01 1.168092206790123555e+01 1.166496190200617278e+01 1.164071084104938336e+01 1.162683063271604844e+01 1.161790219907407362e+01 1.160317660108024640e+01 1.160125000000000028e+01 1.157798659336419789e+01 1.160391493055555578e+01 1.167468074845679027e+01 1.168717255015432066e+01 1.167427758487654366e+01 1.164997154706790106e+01 1.166517843364197482e+01 1.167306278935185126e+01 1.170065055941357990e+01 1.170944926697530875e+01 1.173810329861110979e+01 1.177805362654321009e+01 1.180335985725308490e+01 1.181017457561728534e+01 1.183956548996913583e+01 1.187481674382716079e+01 1.192031491126543230e+01 1.193819058641975239e+01 1.190726610725308632e+01 1.188379292052469260e+01 1.185212384259259366e+01 1.182380835262345720e+01 1.177816068672839478e+01 1.175636381172839506e+01 1.173717013888888872e+01 1.173923418209876601e+01 1.173298466435185183e+01 1.169606336805555635e+01 1.166641975308641932e+01 1.166127025462962941e+01 1.166603250385802326e+01 1.166870804398148032e+01 1.175964072145061756e+01 1.174359905478395127e+01 1.172798804012345641e+01 1.172037229938271530e+01 1.172692467206790035e+01 1.174314670138888950e+01 1.177111111111111086e+01 1.179698061342592652e+01 1.181135898919753124e+01 1.184094714506172963e+01 1.184872010030864153e+01 1.187152826003086403e+01 1.187855854552469204e+01 1.189558883101851805e+01 1.188829089506172743e+01 1.187573495370370402e+01 1.184185619212962948e+01 1.179659770447530853e+01 1.176278983410493773e+01 1.171469425154320909e+01 1.165950038580246861e+01 1.166186439043209866e+01 1.162734616126543230e+01 1.162253472222222150e+01 1.162414351851851890e+01 1.159033661265432080e+01 1.158952642746913497e+01 1.158206645447530825e+01 1.158725597993827172e+01 1.159266541280864260e+01 1.161152199074074076e+01 1.166568094135802447e+01 1.166544463734567927e+01 1.165997829861110979e+01 1.167197289737654486e+01 1.167119936342592723e+01 1.167783516589506121e+01 1.170402247299382736e+01 1.175192370756172799e+01 1.178871383101851933e+01 1.182293933256172735e+01 1.182238088348765359e+01 1.184796923225308518e+01 1.186933738425925888e+01 1.188007474922839535e+01 1.186516493055555443e+01 1.183821469907407398e+01 1.180004147376543244e+01 1.176874903549382800e+01 1.173964650848765423e+01 1.169806520061728428e+01 1.165527584876543088e+01 1.163590133101851798e+01 1.162260995370370509e+01 1.159978057484567948e+01 1.159911313657407383e+01 1.158700135030864153e+01 1.159202642746913625e+01 1.159040605709876637e+01 1.159497781635802482e+01 1.159050925925925846e+01 1.161674672067901248e+01 1.173064429012345578e+01 1.176646315586419789e+01 1.174711902006172970e+01 1.176251109182098809e+01 1.176051118827160558e+01 1.178114101080246989e+01 1.179993152006172963e+01 1.182075231481481481e+01 1.184723283179012299e+01 1.187465856481481552e+01 1.190561101466049365e+01 1.193776813271604986e+01 1.196568913966049408e+01 1.195610291280864246e+01 1.193753520447530825e+01 1.191182773919753046e+01 1.187643904320987609e+01 1.185039255401234470e+01 1.183894145447530732e+01 1.181796489197530775e+01 1.177007378472222143e+01 1.175775028935185063e+01 1.173331934799382736e+01 1.173447386188271579e+01 1.171645206404321016e+01 1.170530623070987808e+01 1.169325954861111150e+01 1.172497492283950749e+01 1.174461660879629576e+01 1.176701581790123363e+01 1.187015817901234627e+01 1.187031201774691347e+01 1.188394579475308710e+01 1.188291714891975204e+01 1.189224344135802447e+01 1.191153404706790120e+01 1.192626736111111008e+01 1.194932966820987552e+01 1.198741174768518469e+01 1.201314091435185283e+01 1.202842351466049386e+01 1.205749035493827037e+01 1.204360821759259181e+01 1.203762393904320938e+01 1.202070939429012419e+01 1.200601803626543251e+01 1.198006896219135875e+01 1.194614728009259252e+01 1.191933738425925959e+01 1.190469569830246854e+01 1.188635850694444329e+01 1.189829089506172899e+01 1.188062548225308745e+01 1.189504581404320938e+01 1.186991705246913575e+01 1.186720486111111050e+01 1.187935329861111100e+01 1.189024305555555472e+01 1.189535976080246904e+01 1.189939718364197674e+01 1.191475019290123427e+01 1.201269290123456912e+01 1.199334394290123562e+01 1.201899064429012221e+01 1.203145447530864232e+01 1.202460455246913540e+01 1.202559654706790049e+01 1.203584153163580339e+01
