2.219554648919752822e+02 2.219564356674382850e+02 2.218663512731481262e+02 2.215484394290123475e+02 2.214716739004629460e+02 2.215442279128086511e+02 2.216320572916666833e+02 2.217230565200617320e+02 2.218050274884259352e+02 2.218940229552469248e+02 2.219679224537037214e+02 2.220460865162037010e+02 2.221289988425926083e+02 2.222037929205246769e+02 2.223099676890432193e+02 2.223884654706789945e+02 2.224225930748456790e+02 2.224120630787037101e+02 2.222620587384259352e+02 2.220376630015432227e+02 2.218291068672839685e+02 2.217778038194444434e+02 2.217221826774691351e+02 2.216808352623456813e+02 2.216414670138888710e+02 2.216332238618827262e+02 2.215829817708333280e+02 2.215489433834876536e+02 2.214933478009259034e+02 2.214622472993827103e+02 2.214508540702160531e+02 2.215911791087962968e+02 2.215886463155864021e+02 2.215881413966049536e+02 2.215968692129629574e+02 2.216512331211419564e+02 2.217026528742283915e+02 2.217592587770061812e+02 2.218150149498456756e+02 2.218658053626543278e+02 2.219231611689814940e+02 2.219934968171296248e+02 2.220701933834876627e+02 2.221415760030864135e+02 2.222213744212963036e+02 2.222970939429012276e+02 2.223885315393518738e+02 2.224525544945987576e+02 2.223823104745370358e+02 2.221519169560185105e+02 2.219058854166666777e+02 2.217351331018518579e+02 2.216653978587962968e+02 2.216383444251543153e+02 2.215767134452160576e+02 2.215877705439814633e+02 2.216062649498456665e+02 2.216049131944444355e+02 2.215668504050925947e+02 2.215253833912036896e+02 2.215242298418210112e+02 2.215520399305555657e+02 2.216781548996913500e+02 2.216708265817901236e+02 2.217164539930555804e+02 2.217506650270061641e+02 2.217746686921296373e+02 2.218118889853395217e+02 2.218452295524691351e+02 2.218834929591049274e+02 2.219331563464506303e+02 2.219848963155864112e+02 2.220461434220678996e+02 2.221163932291666754e+02 2.221668065200617264e+02 2.222350188078703752e+02 2.222626740933641827e+02 2.221341536458333223e+02 2.218911154513888846e+02 2.216756987847222433e+02 2.215519873649691363e+02 2.214874508101851802e+02 2.214626721643518579e+02 2.214677792245370540e+02 2.215003742283950601e+02 2.215295524691357798e+02 2.215058405671296100e+02 2.214606766010802517e+02 2.214507865547839458e+02 2.214643566743827137e+02 2.215054147376543199e+02 2.215703785686728224e+02 2.216434799382716108e+02 2.216770433063271355e+02 2.217193904320987770e+02 2.217994868827160531e+02 2.218755589313271628e+02 2.219391748649691465e+02 2.219898992091049479e+02 2.220529542824073985e+02 2.221167838541666697e+02 2.221789240933641736e+02 2.222521450617284131e+02 2.223185648148148061e+02 2.223945934606481671e+02 2.224001808449073962e+02 2.222436226851851870e+02 2.219552435378086557e+02 2.217330714699074008e+02 2.215945037615740603e+02 2.215186969521604965e+02 2.214589163773148357e+02 2.214089221643518499e+02 2.213942857831790150e+02 2.213940277777777794e+02 2.213742997685185117e+02 2.213344618055555486e+02 2.213119728973765348e+02 2.213249628665123510e+02 2.213596947337962888e+02 2.214098152970678939e+02 2.214746913580246712e+02 2.215437813464506007e+02 2.216002502893518624e+02 2.216183000578703854e+02 2.216619073109567921e+02 2.217404402970678916e+02 2.218104923804012287e+02 2.218741796875000034e+02 2.219466483410493822e+02 2.220231886574074167e+02 2.220883362268518511e+02 2.221593470293209975e+02 2.222423148148148186e+02 2.222884837962963047e+02 2.221704938271604988e+02 2.218806645447530741e+02 2.216260334683641986e+02 2.214777724729938200e+02 2.213826721643518738e+02 2.213313782793210009e+02 2.212869690393518738e+02 2.212722149884259295e+02 2.212656114969135785e+02 2.212499281442901236e+02 2.212133333333333383e+02 2.211758318865740875e+02 2.211601562500000000e+02 2.211964096257716221e+02 2.212454171489197279e+02 2.213068682484567660e+02 2.213797608024691215e+02 2.214586969521604942e+02 2.215299792631172693e+02 2.215805926890432147e+02 2.215976379243826955e+02 2.216446219135802664e+02 2.217315813078703854e+02 2.218024575617284029e+02 2.218763710455247065e+02 2.219494053819444446e+02 2.220161521026234652e+02 2.220527980324074235e+02 2.219052719907407436e+02 2.216203886959876570e+02 2.213640060763888755e+02 2.212112413194444400e+02 2.211272907021605079e+02 2.210783352623456892e+02 2.210598707561728418e+02 2.210779055748456869e+02 2.210878081597222433e+02 2.210524402006172693e+02 2.210016787229938302e+02 2.209675718557098776e+02 2.209740943287036998e+02 2.210166010802469145e+02 2.210661824845678893e+02 2.211376977237654273e+02 2.212005888310185071e+02 2.212781587577160565e+02 2.213540176504629642e+02 2.214303713348765541e+02 2.214945751350308569e+02 2.215520216049382611e+02 2.216050978973765382e+02 2.216964221643518442e+02 2.217694516782407277e+02 2.218564250578703536e+02 2.219304210069444423e+02 2.218892809606481364e+02 2.216190514081790184e+02 2.213106264467592723e+02 2.210778274498456710e+02 2.208776900077160406e+02 2.207487413194444343e+02 2.206505353009259238e+02 2.205901702353395137e+02 2.205586660879629619e+02 2.205289993248456710e+02 2.204616796875000091e+02 2.204008897569444514e+02 2.203486033950617298e+02 2.203433998842592700e+02 2.203702338927469100e+02 2.204238946759259079e+02 2.204833280285493800e+02 2.205581023341049445e+02 2.206539612268518624e+02 2.207057913773148243e+02 2.207510156249999795e+02 2.208019994212962729e+02 2.208593012152777817e+02 2.209252006172839629e+02 2.209894757908950567e+02 2.210640774498456835e+02 2.211684997106481489e+02 2.210579528356481376e+02 2.207841767939814872e+02 2.204706925154321198e+02 2.201053578317901440e+02 2.198999469521604908e+02 2.197625424382715948e+02 2.196142510609567751e+02 2.195203645833333326e+02 2.194711603009259306e+02 2.194365113811728349e+02 2.193798842592592564e+02 2.193302946566358003e+02 2.193042365933642088e+02 2.193127657214506314e+02 2.193513035300925935e+02 2.193916116898147948e+02 2.194564390432098833e+02 2.195159505208333428e+02 2.195816927083333212e+02 2.196446368634259443e+02 2.197114351851851950e+02 2.197869323881172932e+02 2.198708752893518579e+02 2.199400308641975244e+02 2.200148577353395183e+02 2.200944372106481524e+02 2.201911048418209873e+02 2.202808039158950635e+02 2.203624918016975300e+02 2.204245982831789945e+02 2.202642467206790116e+02 2.200772767168209896e+02 2.197897641782407447e+02 2.195774787808641975e+02 2.194585262345678984e+02 2.193487905092592598e+02 2.192640962577160622e+02 2.192165268132716278e+02 2.192103790509259227e+02 2.191820187114197438e+02 2.191477396797839674e+02 2.191144661458333474e+02 2.191116377314814940e+02 2.191495163001543176e+02 2.192081520061728384e+02 2.192816073495370404e+02 2.193574025848765245e+02 2.194429301697530832e+02 2.195112514467592462e+02 2.195875000000000057e+02 2.196613517554012276e+02 2.197322771990740762e+02 2.198023283179012424e+02 2.198902237654321254e+02 2.199784432870370381e+02 2.200738141396604988e+02 2.201590051118827205e+02 2.202593571566358150e+02 2.203675159143518272e+02 2.204681732253086466e+02 2.205767505787036953e+02 2.207792732445987838e+02 2.206763580246913534e+02 2.204197005208333167e+02 2.200668764467592666e+02 2.198759032600308672e+02 2.197943547453703843e+02 2.197285730131172841e+02 2.196799946952160383e+02 2.196715615354938222e+02 2.196733260995370358e+02 2.196537418016975209e+02 2.196228105709876388e+02 2.195941864390431988e+02 2.196227922453703627e+02 2.196579075038580129e+02 2.197179735725308660e+02 2.197768315972222126e+02 2.198581929976851939e+02 2.199256129436728600e+02 2.199883270640432045e+02 2.200491150655864203e+02 2.201841763117284074e+02 2.202506944444444343e+02 2.203239265046296396e+02 2.203976827739197688e+02 2.204737172067901270e+02 2.205620953896604988e+02 2.206451673418209793e+02 2.207317549189814940e+02 2.208267689043209998e+02 2.211017066936728384e+02 2.211218393132716074e+02 2.210008048804012333e+02 2.207398659336419655e+02 2.204908092206790116e+02 2.203433497299382680e+02 2.202634659529321084e+02 2.202161183449074144e+02 2.201790297067901179e+02 2.201789535108024722e+02 2.201760720486111040e+02 2.201489872685185105e+02 2.201196508487654455e+02 2.201148910108024950e+02 2.201319965277777726e+02 2.201787707368827114e+02 2.202432865547839640e+02 2.203139713541666538e+02 2.203815562307098617e+02 2.204471715856481353e+02 2.205056394675926015e+02 2.205604330632716028e+02 2.206166092785493902e+02 2.206818812692901304e+02 2.207491647376543256e+02 2.208193865740740875e+02 2.208997077546296453e+02 2.209782730516975278e+02 2.210449411651234755e+02 2.211183945794753072e+02 2.211984490740740910e+02 2.213733289930555657e+02 2.214020794753086250e+02 2.213098948688271719e+02 2.210632730516975357e+02 2.208345201581790036e+02 2.206091584683641997e+02 2.205167105516975425e+02 2.204704422260802517e+02 2.204379480131172784e+02 2.204212432484567898e+02 2.204166304976851904e+02 2.203717930169753174e+02 2.203069955632716130e+02 2.202611439043209884e+02 2.202339154128086420e+02 2.202538006365740557e+02 2.202912557870370449e+02 2.203569965277777669e+02 2.204101297260802426e+02 2.204594203317901133e+02 2.205119974922839674e+02 2.205574295910493845e+02 2.206077367862654341e+02 2.206521363811728236e+02 2.207110464891975425e+02 2.207676904899691408e+02 2.208262196180555748e+02 2.208975911458333314e+02 2.209614293981481410e+02 2.210333212770061664e+02 2.211023466435185014e+02 2.212872092013888903e+02 2.212499961419752879e+02 2.210523601466049399e+02 2.207889134837962786e+02 2.205431375385802255e+02 2.203601138117283824e+02 2.203103457754629630e+02 2.202821918402777612e+02 2.202970568094135899e+02 2.203225009645061903e+02 2.203277459490740853e+02 2.202988179976852052e+02 2.202542004243827307e+02 2.202375236304012276e+02 2.202683912037036862e+02 2.203261463155864135e+02 2.204017177854938154e+02 2.204856225887345431e+02 2.205507127700617502e+02 2.206228650655864101e+02 2.207468600501543108e+02 2.208171580825617184e+02 2.208815933641975278e+02 2.209507417052469123e+02 2.210271272183641997e+02 2.211043060378086409e+02 2.211901827739197586e+02 2.212936969521605022e+02 2.213730160108024734e+02 2.214698871527777726e+02 2.214967703510802721e+02 2.213546556712963138e+02 2.211335643325617184e+02 2.209338334297839594e+02 2.207538247492284142e+02 2.207019873649691419e+02 2.206710088734567705e+02 2.206847366898148266e+02 2.207103607253086466e+02 2.207074141589506269e+02 2.206621440972222388e+02 2.206130738811728236e+02 2.205940084876543210e+02 2.205959910300925912e+02 2.206389863040123203e+02 2.206936173804012356e+02 2.207653530092592575e+02 2.208402507716049286e+02 2.209215624999999932e+02 2.209878023726851950e+02 2.210527338927469145e+02 2.211044323881172886e+02 2.211625660686728452e+02 2.212250646219135888e+02 2.212883068094135979e+02 2.213588575424382725e+02 2.214369164737654216e+02 2.213990244020061766e+02 2.211803742283950669e+02 2.208797718942901440e+02 2.206886651234567864e+02 2.203152608989197745e+02 2.203555502507715858e+02 2.203994188850308831e+02 2.204350409915123521e+02 2.204879904513888960e+02 2.205009963348765609e+02 2.204856413966049331e+02 2.204586530671296316e+02 2.204614544753086420e+02 2.205029050925926128e+02 2.205615658757716062e+02 2.206426837384259443e+02 2.207216222993827159e+02 2.207909447337962945e+02 2.208580560378086375e+02 2.209105975115740819e+02 2.209538859953703707e+02 2.210053129822530877e+02 2.210555608603395115e+02 2.211150679976851734e+02 2.211910681905864067e+02 2.212674001736110938e+02 2.212094102044753186e+02 2.209673283179012344e+02 2.206689612268518488e+02 2.204629354745370335e+02 2.203432248263888766e+02 2.202694478202160440e+02 2.202419888117284188e+02 2.202355700231481421e+02 2.202460585455246758e+02 2.201178438464506257e+02 2.201160985725308592e+02 2.200918532986111131e+02 2.200846045524691306e+02 2.201058781828703843e+02 2.201432489390432181e+02 2.201980203510802312e+02 2.202572255979938234e+02 2.203282431520061664e+02 2.203892428626543278e+02 2.204575578703703798e+02 2.205037056327160485e+02 2.205581095679012265e+02 2.206140301890432340e+02 2.206816271219135785e+02 2.207428930362654569e+02 2.207590629822530843e+02 2.205841237461419553e+02 2.202618229166666595e+02 2.199480724344136036e+02 2.195659471450617275e+02 2.194064308449074190e+02 2.192974228395061687e+02 2.192338966049382805e+02 2.192133805941357991e+02 2.191566087962962968e+02 2.191070640432099026e+02 2.190546407214506246e+02 2.190419603587963024e+02 2.190741430362654398e+02 2.191147342785493777e+02 2.191929562114197552e+02 2.192555314429012299e+02 2.193086371527777771e+02 2.193763647762345670e+02 2.194374985532407436e+02 2.195026060956789991e+02 2.195674479166666799e+02 2.196338671875000159e+02 2.197138281250000205e+02 2.197968431712963024e+02 2.198458024691358048e+02 2.197111337770061823e+02 2.194059818672839413e+02 2.190904234182098662e+02 2.188478173225308581e+02 2.186856235532407595e+02 2.190740735918209907e+02 2.198338821373456824e+02 2.206573283179012321e+02 2.209159047067901440e+02 2.210213874421296509e+02 2.210501089891975255e+02 2.210795119598765552e+02 2.211091227816357900e+02 2.211808815586419712e+02 2.212644000771605022e+02 2.213396257716049433e+02 2.214301080246913500e+02 2.215010315393518567e+02 2.215703139467592564e+02 2.217934567901234573e+02 2.218226142939814736e+02 2.219061366705246883e+02 2.219825520833333314e+02 2.220502907986111154e+02 2.221134452160493993e+02 2.222027719907407288e+02 2.222590441743827228e+02 2.223420428240740705e+02 2.224128399884259295e+02 2.223900033757716130e+02 2.221599455054012253e+02 2.218527242476851882e+02 2.216189583333333246e+02 2.214672521219135888e+02 2.213662610918210021e+02 2.212961101466049172e+02 2.212540412808642145e+02 2.212344902584876536e+02 2.212293687307098651e+02 2.211916589506172954e+02 2.211497873263888891e+02 2.211241854745370290e+02 2.211466440007716017e+02 2.212152748842592587e+02 2.213022198109567853e+02 2.213961250964506178e+02 2.214753298611111347e+02 2.215544945987654160e+02 2.216325342399691465e+02 2.216976331018518636e+02 2.217182966820987531e+02 2.217490514081790138e+02 2.218371711033950646e+02 2.219348307291666629e+02 2.220165446566358014e+02 2.220946440972222433e+02 2.221808752893518601e+02 2.222576711998456744e+02 2.223265885416666663e+02 2.224036255787036964e+02 2.224786477623456733e+02 2.224785744598765405e+02 2.222751702353395160e+02 2.219810223765432227e+02 2.217548635223765245e+02 2.216124614197530889e+02 2.215287500000000023e+02 2.214686255787037226e+02 2.214379224537036919e+02 2.214299643132715971e+02 2.213886540316358094e+02 2.213387191358024779e+02 2.213173717206790059e+02 2.213291555748456574e+02 2.213783299575617320e+02 2.214401167052469077e+02 2.215218209876543369e+02 2.216001109182098787e+02 2.216715649112654205e+02 2.217576302083333246e+02 2.218026345486111097e+02 2.218390735918210055e+02 2.219225930748456790e+02 2.220103293788580174e+02 2.220952555941358071e+02 2.221787432484567830e+02 2.222590668402777681e+02 2.223269005594135876e+02 2.223949990354938393e+02 2.224682605131172863e+02 2.225353153935185162e+02 2.225920982831790127e+02 2.225143436535493890e+02 2.222390451388889119e+02 2.219447530864197518e+02 2.217553862847222206e+02 2.216508854166666538e+02 2.215973321759259136e+02 2.215716126543210009e+02 2.215839617091049547e+02 2.215994241898148118e+02 2.215910165895061823e+02 2.215498152970678802e+02 2.215157465277777931e+02 2.215118518518518442e+02 2.215614718364197699e+02 2.216351114004629608e+02 2.217231418788580299e+02 2.218176451581790047e+02 2.218847246334876502e+02 2.219514033564814781e+02 2.219770760995370438e+02 2.220157021604938450e+02 2.221012239583333212e+02 2.221863970871913807e+02 2.222836159336419826e+02 2.223682691936728588e+02 2.224344362461419564e+02 2.225121696566357912e+02 2.225952623456790036e+02 2.226862842399691260e+02 2.227714231288580322e+02 2.228626441936728497e+02 2.228928660300925912e+02 2.227177994791666720e+02 2.224300245949074224e+02 2.222123350694444355e+02 2.220785479359567773e+02 2.220161882716049320e+02 2.219921450617283938e+02 2.220178076774691363e+02 2.220617375578703729e+02 2.220854991319444309e+02 2.220731819058642031e+02 2.220209090470678746e+02 2.219972632137345840e+02 2.220026384066358105e+02 2.220633400848765291e+02 2.221418118248456892e+02 2.222337885802469089e+02 2.223091107253086420e+02 2.223846976273148357e+02 2.224452642746913398e+02 2.224762408371913693e+02 2.225480372299382736e+02 2.226132566550926128e+02 2.226881139081790195e+02 2.227705545910493754e+02 2.228381240354938200e+02 2.229102874228395024e+02 2.229812234760802312e+02 2.230520958719135933e+02 2.231165157214506110e+02 2.230323456790123373e+02 2.227699339313271594e+02 2.225195963541666799e+02 2.223404952739197427e+02 2.222399474344135797e+02 2.222011940586419598e+02 2.222204055748456710e+02 2.223180960648148243e+02 2.223048297646604965e+02 2.222504142554012390e+02 2.222061414930555543e+02 2.221944690393518442e+02 2.222257711226851882e+02 2.223031741898148255e+02 2.223844545717592496e+02 2.224609659529320993e+02 2.225324204282407550e+02 2.226061506558641838e+02 2.226651875964506360e+02 2.227352006172839367e+02 2.227676880787036851e+02 2.228344931520061607e+02 2.229118214699074088e+02 2.229836718749999989e+02 2.230692423804012208e+02 2.231475665509259443e+02 2.232175308641975278e+02 2.231700993441358207e+02 2.229041960841049388e+02 2.226143537808641781e+02 2.223904142554012253e+02 2.222396730324074099e+02 2.221437736304012276e+02 2.220631076388888800e+02 2.220269063464506303e+02 2.220198480902777760e+02 2.220115224729938177e+02 2.219636501736111143e+02 2.219270891203703684e+02 2.219091396604938211e+02 2.219316319444444616e+02 2.219928182870370392e+02 2.220706529706790207e+02 2.221473799189814997e+02 2.222260595100308649e+02 2.223091864390432022e+02 2.223675472608024677e+02 2.224306954089506121e+02 2.224905825617283881e+02 2.225494738618827171e+02 2.226208704668209748e+02 2.226570235339506212e+02 2.227498013117284188e+02 2.228425062692901122e+02 2.229389930555555566e+02 2.229933439429012481e+02 2.228885185185185378e+02 2.225822448881172875e+02 2.222931090856481262e+02 2.220830396412036976e+02 2.219402594521604897e+02 2.218525448495370540e+02 2.217643142361111188e+02 2.216994048996913591e+02 2.216901147762345659e+02 2.216675183256172943e+02 2.216303018904320936e+02 2.215982368827160371e+02 2.215843807870370483e+02 2.216155131172839674e+02 2.217023133680555702e+02 2.217831626157407356e+02 2.218741083140432124e+02 2.219615205439814929e+02 2.220360339506172807e+02 2.221037924382715971e+02 2.221819362461419871e+02 2.222533174189814815e+02 2.223108506944444400e+02 2.223707749807098821e+02 2.224366902970679121e+02 2.226650342399691169e+02 2.227003308256173000e+02 2.227812842399691533e+02 2.228778192515432295e+02 2.228323746141975050e+02 2.225879528356481671e+02 2.222939549575617093e+02 2.220684235146605090e+02 2.219171286651234709e+02 2.218365596064814724e+02 2.217777879050925947e+02 2.217575400270061721e+02 2.217599787808641736e+02 2.217497014853395001e+02 2.217156452546296350e+02 2.216763503086419860e+02 2.216701258680555497e+02 2.217757359182098753e+02 2.218698871527777783e+02 2.219612663966049126e+02 2.220469516782407595e+02 2.221211217206790138e+02 2.221778742283950407e+02 2.222326229745370370e+02 2.222900713734567830e+02 2.223529258294752822e+02 2.224175120563271548e+02 2.224886265432098753e+02 2.225592428626543153e+02 2.226343190586419780e+02 2.228789891975308421e+02 2.228124252507716108e+02 2.225886622299382793e+02 2.223162123842592450e+02 2.220839187885802346e+02 2.219168344907407402e+02 2.218081809413580174e+02 2.217564544753086295e+02 2.217727965856481376e+02 2.218029402970678916e+02 2.218018634259259443e+02 2.217503313078703684e+02 2.216967066936728372e+02 2.216870529513888926e+02 2.217235821759259125e+02 2.217916994598765541e+02 2.218792076581790127e+02 2.219574575617284040e+02 2.220301056134259454e+02 2.221036005015432124e+02 2.221625405092592587e+02 2.222187046682098810e+02 2.222751379243827046e+02 2.223257426697530832e+02 2.223819941165123453e+02 2.224325896990740716e+02 2.225099546682098719e+02 2.225776032021605033e+02 2.225474715470678859e+02 2.223105931712962899e+02 2.219896074459876445e+02 2.213310431134259204e+02 2.212938551311728475e+02 2.212854716435185196e+02 2.212665224729938132e+02 2.212521604938271764e+02 2.212691362847222081e+02 2.212806356095678950e+02 2.212518542631172807e+02 2.212163295717592462e+02 2.211865957754629619e+02 2.212099334490740716e+02 2.212726562500000114e+02 2.213587726658950601e+02 2.214560691550925924e+02 2.215405179398148050e+02 2.216173987268518601e+02 2.216943484760802505e+02 2.217640287422839549e+02 2.218249064429012378e+02 2.218830844907407425e+02 2.219425221836419553e+02 2.220192322530864146e+02 2.221026234567901270e+02 2.221929002700617275e+02 2.222727208719135774e+02 2.223061173804012469e+02 2.221639737654321038e+02 2.218530608603394967e+02 2.215652555941358059e+02 2.213651784336419723e+02 2.212274580439814997e+02 2.209144618055555611e+02 2.209072617669753242e+02 2.209311091820987656e+02 2.209718036265432204e+02 2.210023070987654421e+02 2.209956698495370233e+02 2.209809423225308649e+02 2.209999098186728475e+02 2.210477276234567796e+02 2.211214964313271594e+02 2.212254943094135626e+02 2.213276007908950760e+02 2.214377951388889016e+02 2.215361940586419678e+02 2.216240229552469145e+02 2.216953563850308626e+02 2.218593508873456983e+02 2.219513421103395103e+02 2.220585223765432090e+02 2.221580960648147993e+02 2.222510575810185003e+02 2.223635079089505950e+02 2.224817365933641895e+02 2.225495085841049274e+02 2.224362152777777624e+02 2.221542066936728475e+02 2.218906992669753038e+02 2.217303481867283779e+02 2.216375540123456744e+02 2.215948389274691408e+02 2.214537900270061641e+02 2.214804494598765245e+02 2.215505140817901122e+02 2.215802112268518442e+02 2.215654788773148312e+02 2.215555642361111097e+02 2.215928501157407595e+02 2.216539568865740648e+02 2.217408994020061641e+02 2.218217573302469248e+02 2.219102136381172841e+02 2.219868320794753060e+02 2.220628549382716130e+02 2.221277449845678973e+02 2.221872492283950464e+02 2.222638888888888857e+02 2.223395052083333212e+02 2.224204099151234573e+02 2.224985985725308524e+02 2.225856428433641838e+02 2.226862215470679018e+02 2.227937427662037067e+02 2.228294806134259147e+02 2.226956785300926072e+02 2.224123775077160587e+02 2.221870114776234573e+02 2.220539433834876490e+02 2.219735030864197540e+02 2.219427541473765473e+02 2.219668986304012321e+02 2.220263633294752879e+02 2.219692934992283995e+02 2.219391820987654569e+02 2.219118663194444423e+02 2.219215938464506053e+02 2.219835440779320948e+02 2.220458526234567955e+02
2.335141782407407496e-01 2.363556134259259256e-01 2.535054976851851549e-01 3.329692322530863891e-01 4.484809027777778012e-01 5.249397183641976161e-01 5.897304205246912678e-01 6.454938271604938604e-01 7.060850694444443798e-01 7.543373842592593359e-01 8.134379822530865001e-01 8.736839313271604901e-01 9.452657214506173800e-01 1.013246045524691441e+00 1.102719907407407440e+00 1.340124421296296164e+00 1.314352816358024700e+00 1.193341531635802477e+00 8.980420524691358208e-01 4.820987654320987303e-01 2.224787808641975340e-01 2.685469714506172889e-01 2.853457754629629695e-01 2.999445408950617287e-01 3.112553047839506370e-01 3.280767746913580418e-01 3.149609374999999822e-01 3.019516782407407618e-01 2.877565586419753019e-01 2.770601851851852149e-01 2.727189429012345512e-01 2.397791280864197405e-01 2.397540509259259156e-01 2.585754243827160792e-01 3.114448302469135510e-01 3.657990933641975251e-01 4.124633487654321140e-01 4.467038001543209846e-01 4.836424575617284116e-01 5.155878665123456717e-01 5.526871141975308044e-01 5.986733217592592471e-01 6.442283950617283539e-01 6.995312499999999378e-01 7.504359567901234263e-01 8.074985532407408240e-01 8.750120563271605034e-01 9.428645833333333393e-01 9.242245370370371083e-01 7.949672067901234485e-01 6.597429591049382980e-01 5.536578896604938960e-01 5.260498649691357498e-01 5.129229359567900604e-01 4.672140239197530853e-01 4.528067129629629872e-01 4.474016203703704009e-01 4.400168788580247070e-01 4.208940972222222077e-01 3.995003858024691601e-01 3.896701388888889062e-01 3.935561342592592271e-01 4.206491126543209780e-01 4.103809799382716061e-01 4.332769097222222143e-01 4.617124807098765271e-01 4.899103009259259123e-01 5.192906057098766182e-01 5.459215856481480778e-01 5.697207754629629584e-01 5.971146797839506082e-01 6.350019290123457560e-01 6.763691165123456583e-01 7.191179591049382536e-01 7.795659722222222365e-01 8.407166280864197816e-01 8.827329282407407884e-01 8.315171682098765338e-01 6.876114004629628740e-01 5.464028742283950635e-01 4.587668788580246959e-01 4.197415123456790242e-01 3.989790702160493918e-01 3.940509259259258878e-01 4.001186342592592537e-01 4.083916859567900959e-01 4.016338734567901358e-01 3.884346064814814814e-01 3.797902199074074114e-01 3.849985532407407263e-01 3.987167245370370483e-01 4.232923418209876831e-01 4.504928626543209802e-01 5.439732831790123901e-01 5.378153935185185919e-01 5.749643132716049099e-01 6.173191550925926085e-01 6.560426311728394522e-01 7.027927276234567922e-01 7.584895833333333837e-01 8.131004050925926263e-01 8.690909529320987037e-01 9.292144097222222454e-01 1.002897858796296449e+00 1.074812885802469031e+00 1.117157118055555509e+00 1.030727237654321060e+00 8.208622685185185119e-01 6.296489197530864557e-01 5.220674189814815680e-01 4.668846450617283872e-01 4.284919945987654133e-01 4.019203317901234862e-01 3.921730324074074181e-01 3.902744020061728603e-01 3.821879822530864224e-01 3.718576388888888973e-01 3.606973379629629939e-01 3.603399884259259611e-01 3.749508101851851682e-01 3.917954282407407618e-01 4.161033950617283872e-01 4.472704475308642014e-01 4.808424961419753285e-01 5.911974344135801918e-01 5.841599151234567744e-01 6.152936921296295880e-01 6.458458719135802273e-01 6.899257330246912900e-01 7.402642746913580263e-01 7.974614197530863757e-01 8.575053047839507059e-01 9.268750000000000044e-01 1.001162712191357995e+00 1.056731770833333472e+00 9.993909143518517890e-01 8.110416666666666607e-01 6.160474537037036180e-01 4.998939043209876254e-01 4.394102044753086522e-01 4.086955054012345601e-01 3.854099151234567922e-01 3.728597608024691312e-01 3.697202932098765382e-01 3.634259259259259300e-01 3.475448495370370150e-01 3.360489004629629850e-01 3.321532600308642058e-01 3.383314043209876831e-01 3.514612268518518268e-01 3.728559027777777479e-01 3.975400270061728580e-01 4.325004822530864601e-01 4.699189814814814792e-01 5.053004436728395499e-01 6.224363425925926174e-01 6.145158179012345512e-01 6.473625578703703365e-01 6.805589313271604990e-01 7.196137152777777324e-01 7.657098765432098775e-01 8.320871913580246693e-01 8.715948109567901447e-01 8.083193479938272086e-01 6.479933449074074536e-01 4.873519483024691956e-01 3.934225501543209824e-01 3.382151813271604968e-01 3.129243827160493874e-01 3.018277391975308643e-01 3.049619020061728469e-01 3.045380015432098686e-01 2.926364776234567922e-01 2.778573495370370572e-01 2.702174961419753219e-01 2.716994598765432034e-01 2.812220293209876654e-01 2.981254822530864379e-01 3.246349344135802673e-01 3.469695216049382691e-01 3.787798996913580019e-01 4.154031635802469258e-01 4.551350308641975428e-01 4.976200810185185119e-01 5.396074459876543106e-01 5.798654513888888973e-01 7.230164930555555980e-01 7.229562114197530809e-01 7.622516396604938071e-01 8.013681520061728403e-01 7.883820408950616976e-01 6.588329475308641880e-01 4.595693479938271486e-01 3.196706211419753085e-01 2.472188464506172856e-01 2.096166087962963165e-01 1.884350887345679071e-01 1.741714891975308654e-01 1.665470679012345800e-01 1.591324266975308599e-01 1.483246527777777879e-01 1.360575810185185031e-01 1.272622492283950746e-01 1.257672646604938160e-01 1.298529128086419737e-01 1.380010609567901281e-01 1.477420910493827122e-01 1.625892168209876476e-01 1.870973186728394910e-01 2.001427469135802495e-01 2.120307677469135954e-01 2.296103395061728225e-01 2.529634452160493541e-01 2.766565393518518601e-01 3.076012731481481688e-01 3.396547067901234951e-01 4.514467592592592560e-01 3.854099151234567922e-01 2.632961998456789798e-01 1.549411651234567922e-01 9.676408179012345456e-02 7.211902006172839219e-02 5.646604938271605062e-02 4.458912037037036924e-02 3.818287037037036702e-02 3.421103395061728114e-02 3.266637731481481649e-02 2.928192515432098686e-02 2.660156250000000194e-02 2.586902006172839275e-02 2.597752700617284027e-02 2.717399691358024505e-02 2.898485725308641917e-02 3.241994598765432500e-02 3.646412037037036896e-02 3.958140432098765371e-02 4.390432098765431612e-02 4.928626543209876226e-02 5.643566743827160836e-02 6.404079861111111605e-02 7.295765817901234129e-02 8.357108410493827022e-02 9.711419753086419915e-02 1.124074074074074142e-01 1.310271990740740911e-01 1.547603202160493796e-01 1.728896604938271464e-01 1.763609182098765660e-01 1.133526234567901192e-01 6.693528163580246548e-02 4.501832561728395105e-02 3.388647762345678438e-02 2.808593749999999806e-02 2.398389274691357931e-02 2.195167824074073862e-02 2.152440200617283805e-02 2.078125000000000111e-02 2.014419367283950407e-02 2.035397376543209708e-02 2.062596450617283986e-02 2.106047453703703901e-02 2.328317901234567763e-02 2.524064429012345956e-02 2.881365740740740589e-02 3.350260416666666491e-02 3.790027006172839302e-02 4.281684027777777485e-02 4.790895061728395188e-02 5.582754629629629872e-02 6.577739197530864390e-02 7.746093750000000722e-02 9.160349151234567500e-02 1.049503279320987692e-01 1.208887924382716084e-01 1.403732638888889050e-01 1.653419174382715906e-01 1.913382523148147996e-01 2.200482253086419870e-01 3.205160108024691090e-01 2.633545524691358053e-01 1.769053819444444675e-01 1.111603009259259228e-01 8.068094135802469924e-02 6.494405864197530520e-02 5.639756944444444114e-02 5.198736496913580751e-02 5.015866126543210013e-02 5.016589506172839524e-02 4.834538966049382880e-02 4.599681712962962882e-02 4.461805555555555663e-02 4.578607253086419693e-02 4.935426311728395576e-02 5.329282407407407579e-02 5.788194444444444420e-02 6.650559413580246770e-02 7.571759259259260022e-02 8.538966049382715195e-02 9.726466049382716250e-02 1.232629243827160354e-01 1.397916666666666752e-01 1.583883101851851771e-01 1.769256365740740911e-01 2.025226658950617376e-01 2.296551890432098619e-01 2.609485918209876743e-01 2.950877700617284272e-01 3.292930169753086611e-01 4.638054591049382558e-01 4.542853009259259500e-01 4.016444830246913567e-01 2.935026041666666807e-01 2.037437307098765304e-01 1.552628279320987514e-01 1.376051311728395121e-01 1.240244020061728458e-01 1.161853780864197522e-01 1.124392361111111183e-01 1.131582754629629622e-01 1.107219328703703820e-01 1.070201581790123507e-01 1.072839506172839491e-01 1.090851658950617170e-01 1.153038194444444414e-01 1.244212962962962937e-01 1.384085648148148107e-01 1.529991319444444220e-01 1.697415123456789965e-01 1.868899498456790265e-01 2.076929012345679060e-01 2.265625000000000000e-01 2.490764853395061873e-01 2.727922453703703898e-01 3.050347222222222210e-01 3.413589891975308821e-01 3.800000000000000044e-01 4.161950231481481577e-01 4.531158371913580063e-01 5.002907986111111427e-01 6.347887731481480778e-01 6.181317515432098730e-01 5.729147376543209935e-01 4.502334104938272019e-01 3.214115547839506148e-01 2.488478973765431979e-01 2.124300733024691301e-01 1.956881751543209924e-01 1.866623263888888828e-01 1.841237461419752974e-01 1.820635609567901325e-01 1.732103587962962876e-01 1.623914930555555580e-01 1.511684992283950646e-01 1.460103202160493996e-01 1.473905285493827266e-01 1.546252893518518523e-01 1.654147376543209924e-01 1.752498070987654200e-01 1.903964120370370550e-01 2.060262345679012286e-01 2.200805362654321140e-01 2.361308834876543195e-01 2.547810570987654177e-01 2.780666473765432412e-01 3.001991705246913611e-01 3.278891782407407640e-01 3.589626736111111160e-01 3.945418595679012208e-01 4.373712384259259012e-01 4.871855709876543594e-01 6.243595679012344801e-01 5.832682291666666519e-01 4.786130401234567344e-01 3.353163580246913411e-01 2.337895447530864146e-01 1.897935956790123280e-01 1.721706211419752885e-01 1.643643904320987725e-01 1.638874421296296346e-01 1.677478780864197494e-01 1.685614390432098875e-01 1.664110725308642069e-01 1.591237461419753030e-01 1.574522569444444520e-01 1.631823881172839441e-01 1.712456597222222210e-01 1.901480516975308510e-01 2.073374807098765371e-01 2.269974922839506359e-01 2.517230902777777835e-01 3.116256751543209913e-01 3.414380787037037401e-01 3.745346257716049010e-01 4.120650077160493696e-01 4.566666666666666652e-01 4.996175733024691423e-01 5.479021990740741144e-01 6.106915509259259744e-01 6.682995756172839252e-01 7.317708333333333703e-01 8.198476080246913655e-01 7.056235532407406641e-01 5.276277970679011942e-01 3.887244405864197505e-01 3.198312114197530698e-01 2.930893132716049232e-01 2.800139853395061662e-01 2.811395640432098331e-01 2.884230324074074092e-01 2.866059027777778101e-01 2.787466242283950790e-01 2.670298032407407152e-01 2.579292052469135399e-01 2.588777970679012608e-01 2.673760609567901181e-01 2.840195794753086478e-01 3.066594328703703409e-01 3.311217206790123546e-01 3.628650655864197327e-01 3.969338348765432123e-01 4.344540895061728691e-01 4.638348765432098730e-01 4.962789351851852326e-01 5.331944444444444153e-01 5.739906442901233641e-01 6.194130979938271553e-01 6.736130401234567966e-01 6.643195408950617331e-01 5.681949266975307999e-01 4.151803626543210113e-01 3.150781249999999867e-01 2.254494598765432178e-01 2.097198109567901259e-01 2.074701003086419915e-01 2.151003086419753241e-01 2.242631172839506248e-01 2.309191743827160581e-01 2.299956597222222177e-01 2.242211612654320951e-01 2.227671682098765482e-01 2.330811149691358053e-01 2.498765432098765393e-01 2.734317129629629251e-01 3.002425733024691179e-01 3.305497685185184720e-01 3.612847222222222432e-01 3.904094328703703320e-01 4.195206404320987459e-01 4.429962384259259478e-01 4.719174382716049276e-01 5.041748649691357720e-01 5.471874999999999378e-01 5.823813657407407307e-01 5.686588541666666163e-01 4.667163387345679149e-01 3.296793016975309021e-01 2.418552276234567922e-01 1.961762152777777879e-01 1.720519868827160570e-01 1.632339891975308765e-01 1.584780092592592560e-01 1.610132137345678949e-01 1.797362075617283950e-01 1.555873842592592760e-01 1.422458526234567922e-01 1.359669174382716061e-01 1.370992476851851660e-01 1.459331597222222054e-01 1.584982638888888795e-01 1.716753472222222465e-01 1.905979938271605001e-01 2.099262152777777724e-01 2.244700038580246804e-01 2.434423225308642025e-01 2.620597029320987370e-01 2.801027199074074270e-01 3.019646990740740833e-01 3.337861689814814459e-01 3.496677276234567699e-01 3.009297839506172578e-01 1.948080632716049365e-01 1.178829089506172878e-01 5.903983410493827272e-02 4.908371913580246437e-02 4.110580632716048788e-02 3.677854938271604701e-02 3.454957561728395216e-02 3.237413194444443976e-02 2.982397762345679118e-02 2.811728395061728267e-02 2.767554012345679187e-02 2.883439429012345581e-02 4.459924768518518101e-02 3.869212962962963187e-02 3.980999228395061540e-02 4.180555555555555414e-02 4.709153163580247214e-02 5.319106867283950740e-02 5.966001157407407191e-02 6.724633487654320396e-02 7.695360725308642014e-02 8.733989197530864224e-02 9.923611111111110827e-02 1.087099729938271614e-01 9.399498456790122969e-02 6.038676697530864085e-02 3.407648533950617675e-02 2.172501929012345817e-02 1.552758487654321007e-02 1.697000385802469036e-02 2.450858410493826980e-02 4.400173611111111299e-02 5.442708333333333426e-02 5.871334876543210513e-02 5.689187885802469286e-02 5.730709876543210041e-02 5.872733410493826550e-02 6.327401620370370905e-02 7.046971450617284249e-02 7.762827932098766148e-02 8.507860725308641348e-02 9.553964120370370128e-02 1.039390432098765416e-01 1.685826581790123291e-01 1.517447916666666841e-01 1.603901427469135721e-01 1.740195794753086334e-01 1.871397569444444575e-01 2.077893518518518501e-01 2.343224344135802495e-01 2.564125192901234862e-01 2.889670138888889017e-01 3.239515817901234551e-01 3.242669753086419582e-01 2.602208719135802317e-01 1.645968364197530620e-01 1.052744020061728430e-01 7.589457947530864335e-02 6.458381558641976272e-02 5.781250000000000278e-02 5.519772376543210374e-02 5.413580246913580335e-02 5.331018518518518962e-02 4.992669753086419887e-02 4.697482638888889062e-02 4.612895447530863946e-02 4.827498070987654849e-02 5.138695987654320896e-02 5.828559027777777818e-02 6.413146219135802684e-02 7.133005401234567000e-02 8.390142746913580030e-02 9.548128858024691745e-02 1.076548032407407401e-01 1.604451195987654510e-01 1.460016396604938149e-01 1.556365740740740800e-01 1.719343171296296435e-01 1.892988040123456950e-01 2.112639853395061884e-01 2.361800733024691235e-01 2.647950424382716217e-01 2.973186728395061929e-01 3.345760995370370416e-01 3.731992669753086411e-01 3.861950231481481310e-01 3.277570408950616909e-01 2.257412229938271508e-01 1.459987461419753052e-01 1.046402391975308627e-01 8.843991126543208903e-02 8.000868055555555858e-02 7.858699845679012475e-02 7.886429398148148140e-02 7.332224151234568998e-02 6.882282021604939348e-02 6.577305169753086544e-02 6.687114197530863446e-02 7.019820601851851916e-02 7.687692901234567666e-02 8.616512345679012974e-02 9.518856095679012475e-02 1.058251350308642008e-01 1.192930169753086411e-01 1.856954089506172856e-01 1.704832175925925786e-01 1.797323495370370394e-01 1.933405671296296313e-01 2.140533371913580230e-01 2.369921875000000067e-01 2.608424961419752997e-01 2.872400655864197350e-01 3.186554783950617531e-01 3.553988233024691357e-01 3.940624999999999822e-01 4.194502314814815280e-01 4.072661072530864290e-01 3.138126929012345911e-01 2.046831597222222299e-01 1.437808641975308610e-01 1.130545910493827161e-01 9.994791666666666408e-02 9.500868055555555802e-02 9.750819830246913733e-02 9.888358410493826300e-02 9.526765046296295503e-02 8.963107638888889728e-02 8.551938657407408273e-02 8.575231481481480900e-02 8.928578317901234018e-02 9.700810185185185230e-02 1.080830439814814831e-01 1.218142361111110988e-01 1.329374035493827155e-01 1.502010995370370305e-01 2.330738811728395310e-01 2.171619405864197438e-01 2.303771219135802295e-01 2.503380594135802273e-01 2.768942901234567877e-01 3.020298032407407463e-01 3.372468171296296169e-01 3.728891782407406930e-01 4.154875578703703942e-01 4.672294560185185630e-01 5.219063464506172867e-01 5.801094714506171979e-01 6.102208719135802095e-01 5.500540123456789665e-01 4.142095871913580307e-01 2.959558256172839519e-01 2.280246913580246948e-01 2.008087384259259200e-01 1.908777006172839574e-01 1.913088348765432101e-01 1.955849729938271830e-01 1.976229745370370605e-01 1.936786265432098864e-01 1.840919174382715795e-01 1.789289158950617409e-01 1.768455825617284149e-01 1.870630787037037002e-01 2.008212770061728325e-01 2.232605131172839541e-01 2.424459876543209602e-01 2.678621720679012497e-01 3.811689814814814836e-01 3.653655478395061440e-01 3.831100501543209802e-01 4.095543981481481466e-01 4.380883487654321229e-01 4.756008873456790131e-01 5.155251736111110539e-01 5.596571180555555136e-01 6.110382908950617864e-01 6.732021604938270842e-01 7.287408371913579597e-01 6.981322337962962976e-01 5.673133680555555447e-01 4.160431134259259256e-01 3.126880787037036868e-01 2.622198109567901447e-01 2.417486496913580363e-01 2.442119984567901469e-01 2.615359760802468680e-01 2.559138695987654422e-01 2.422106481481481333e-01 2.314120370370370550e-01 2.278158757716049476e-01 2.338064236111111194e-01 2.521026234567901314e-01 2.744184027777777923e-01 2.963585069444444331e-01 3.240017361111111049e-01 3.583791473765432500e-01 3.896431327160493896e-01 5.294068287037037024e-01 5.139544753086420226e-01 5.318740354938271686e-01 5.637114197530863624e-01 6.058854166666667318e-01 6.519111689814814925e-01 7.059297839506173400e-01 7.705309606481480778e-01 7.606409143518518823e-01 6.295553626543209935e-01 4.372805748456790043e-01 3.035045331790123257e-01 2.351340663580246959e-01 2.040335648148147996e-01 1.849585262345679049e-01 1.760180362654321096e-01 1.732291666666666841e-01 1.722304205246913689e-01 1.642906057098765527e-01 1.574170524691357875e-01 1.504803240740740788e-01 1.510860339506172878e-01 1.618803047839506015e-01 1.753587962962962765e-01 1.906129436728394855e-01 2.072979359567901081e-01 2.291975308641975295e-01 2.513425925925925619e-01 2.772347608024691157e-01 3.045944251543209469e-01 3.383820408950617420e-01 4.612808641975308932e-01 4.500675154320987748e-01 4.746542245370370394e-01 5.136424575617284383e-01 5.673297646604938960e-01 6.136709104938271597e-01 5.759080825617284294e-01 4.372487461419753418e-01 2.840875771604938760e-01 1.913874421296296313e-01 1.485276813271604879e-01 1.279629629629629450e-01 1.145558449074074170e-01 1.079185956790123385e-01 1.082445987654321040e-01 1.072564621913580235e-01 1.028554205246913628e-01 9.957609953703704109e-02 9.928385416666667129e-02 1.017443094135802445e-01 1.095582561728395132e-01 1.198181905864197649e-01 1.329007523148148240e-01 1.469550540123456817e-01 1.663681520061728314e-01 1.920630787037037046e-01 2.169767554012345667e-01 2.423249421296296280e-01 2.677772955246913722e-01 2.990547839506172978e-01 3.339925733024691201e-01 4.757788387345679437e-01 4.652956211419753130e-01 4.952237654320987836e-01 5.407339891975309065e-01 5.304538001543209758e-01 4.285325038580247159e-01 2.846363811728395143e-01 1.920346257716049332e-01 1.454735725308642091e-01 1.273529128086419715e-01 1.175699266975308716e-01 1.150819830246913450e-01 1.145765817901234634e-01 1.156148726851851938e-01 1.123152970679012347e-01 1.058260995370370328e-01 1.058473186728395160e-01 1.188498263888888851e-01 1.303288966049382935e-01 1.447834683641975317e-01 1.656881751543209935e-01 1.871899112654321073e-01 2.083236882716049398e-01 2.330516975308641880e-01 2.562837577160493874e-01 2.807286844135802317e-01 3.113749035493827422e-01 3.506606867283950657e-01 3.905155285493827066e-01 4.301114004629629783e-01 5.902488425925925819e-01 5.393407600308641747e-01 4.300810185185185430e-01 2.856635802469135732e-01 1.899334490740740844e-01 1.464694251543209869e-01 1.280425347222222121e-01 1.208564814814814814e-01 1.223220486111111088e-01 1.293378665123456894e-01 1.300950038580246937e-01 1.223225308641975179e-01 1.137509645061728358e-01 1.119261188271604840e-01 1.156380208333333270e-01 1.241724537037036946e-01 1.378660300925925730e-01 1.514424189814815025e-01 1.693981481481481310e-01 1.883965084876543239e-01 2.073842592592592404e-01 2.274599729938271420e-01 2.498461612654320763e-01 2.755237268518518357e-01 2.982349537037037313e-01 3.317607060185184809e-01 3.728187692901234751e-01 4.168084490740740500e-01 4.154682677469135887e-01 3.365287422839505771e-01 2.156616512345679026e-01 1.021889467592592554e-01 7.877073688271604701e-02 6.969810956790123413e-02 6.472222222222222265e-02 6.319878472222222043e-02 6.414689429012344901e-02 6.437982253086420303e-02 6.196084104938272274e-02 5.928192515432098575e-02 5.818865740740740422e-02 5.857783564814814797e-02 6.226996527777778345e-02 6.729118441358025726e-02 7.857590663580246715e-02 9.076195987654320230e-02 1.043778935185185192e-01 1.174112654320987603e-01 1.365166859567901181e-01 1.510353973765432289e-01 1.667110339506172878e-01 1.846011766975308721e-01 2.080782214506172734e-01 2.347887731481481666e-01 2.707812500000000289e-01 3.064612268518518423e-01 3.270529513888889017e-01 2.922352430555555380e-01 2.010141782407407485e-01 1.156254822530864285e-01 7.387104552469135610e-02 5.759693287037036952e-02 5.770447530864197816e-02 4.175684799382715917e-02 3.922598379629629872e-02 4.131221064814814825e-02 4.359037422839506098e-02 4.176022376543209874e-02 4.171055169753086489e-02 4.318817515432098880e-02 4.497733410493827411e-02 4.916618441358024810e-02 5.789303626543209486e-02 6.997878086419753729e-02 8.528983410493827522e-02 1.006978202160493802e-01 1.191203703703703765e-01 1.324594907407407596e-01 1.724049961419752974e-01 2.007571373456790154e-01 2.354793595679012530e-01 2.673172260802469391e-01 3.039602623456790220e-01 3.493330439814815169e-01 4.012176890432098686e-01 4.428790509259258878e-01 4.076774691358024949e-01 3.049262152777778012e-01 2.012215470679012130e-01 1.419039351851851816e-01 1.187215470679012230e-01 1.077391975308641947e-01 1.178481867283950602e-01 1.031114969135802500e-01 1.062712191358024666e-01 1.064752121913580263e-01 1.025689621913580263e-01 1.003284143518518440e-01 1.040441743827160564e-01 1.133921682098765482e-01 1.272284915123456650e-01 1.468098958333333426e-01 1.699276620370370194e-01 1.899903549382715995e-01 2.174040316358024638e-01 2.459929591049382636e-01 2.733617862654321162e-01 3.032007137345679171e-01 3.352864583333333148e-01 3.674995177469135843e-01 4.084620949074074248e-01 4.563546489197530809e-01 5.093586033950617820e-01 5.747130594135801962e-01 6.146566358024690979e-01 5.635537229938272219e-01 4.325569058641975384e-01 3.124209104938271420e-01 2.378317901234568155e-01 2.025530478395061729e-01 1.881939621913580329e-01 1.900959683641975095e-01 2.016218171296296213e-01 2.446180555555555469e-01 2.138975694444444631e-01 1.971542245370370150e-01 1.909953703703703709e-01 1.980960648148148151e-01 2.127044753086419770e-01
1.298839072145061735e+01 1.294250578703703702e+01 1.276135320216049251e+01 1.228561680169753068e+01 1.201872685185185219e+01 1.201498408564814824e+01 1.205199459876543244e+01 1.208423225308641946e+01 1.212487413194444485e+01 1.217036603009259110e+01 1.221002266589506213e+01 1.223782986111111093e+01 1.225389949845678927e+01 1.229690104166666664e+01 1.232531780478395156e+01 1.245934076003086410e+01 1.240968123070987517e+01 1.230353587962962969e+01 1.211086853780864203e+01 1.187813705632716044e+01 1.169186583719135797e+01 1.183057532793209887e+01 1.189724295910493801e+01 1.193530140817901142e+01 1.195860291280864196e+01 1.202324701003086460e+01 1.197018373842592531e+01 1.195321614583333414e+01 1.192359182098765302e+01 1.191528115354938144e+01 1.192068335262345613e+01 1.207694203317901227e+01 1.202693431712962813e+01 1.196058690200617391e+01 1.190975453317901156e+01 1.191961612654321101e+01 1.190085407021604880e+01 1.193119405864197446e+01 1.196084972993827122e+01 1.195528838734567856e+01 1.196068335262345705e+01 1.196776716820987652e+01 1.200058015046296234e+01 1.202407407407407369e+01 1.203813416280864246e+01 1.206521315586419796e+01 1.208377941743827222e+01 1.211225694444444301e+01 1.209209490740740733e+01 1.206559992283950677e+01 1.209430989583333194e+01 1.210367476851851798e+01 1.215104070216049337e+01 1.217326099537037187e+01 1.211269917052469225e+01 1.208592592592592574e+01 1.208583767361111150e+01 1.206034673996913575e+01 1.206290075231481396e+01 1.204997202932098688e+01 1.203347077546296262e+01 1.205440104166666515e+01 1.217127845293209987e+01 1.210886284722222150e+01 1.208724585262345741e+01 1.206640866126543088e+01 1.205565923996913469e+01 1.205867332175925988e+01 1.205990644290123370e+01 1.206777777777777771e+01 1.208527199074074154e+01 1.208646122685185098e+01 1.210284770447530889e+01 1.212511429398148266e+01 1.213467399691358040e+01 1.215908371913580233e+01 1.217806423611111200e+01 1.214752314814814937e+01 1.210958285108024768e+01 1.208619261188271565e+01 1.207967592592592609e+01 1.206376687885802390e+01 1.205561053240740854e+01 1.203294126157407362e+01 1.202095630787037095e+01 1.201378423996913725e+01 1.199642988040123370e+01 1.198477961033950656e+01 1.197907793209876637e+01 1.197289207175925974e+01 1.197583574459876665e+01 1.197389226466049372e+01 1.199023099922839641e+01 1.202969376929012313e+01 1.200134596836419654e+01 1.202697723765431981e+01 1.204192081404320902e+01 1.204440055941357990e+01 1.205169270833333250e+01 1.204999469521604816e+01 1.208202932098765459e+01 1.209410831404321129e+01 1.211038580246913554e+01 1.214702353395061785e+01 1.216304446373456827e+01 1.216142795138888921e+01 1.214329330632716086e+01 1.210872781635802475e+01 1.205521074459876552e+01 1.204129967206790042e+01 1.202905719521604944e+01 1.203611014660493872e+01 1.203280430169753146e+01 1.198956452546296170e+01 1.197488281250000064e+01 1.196717785493827257e+01 1.195453510802469133e+01 1.194781732253086304e+01 1.194861545138888914e+01 1.194666956018518533e+01 1.193996576003086396e+01 1.193043161651234563e+01 1.194849344135802482e+01 1.193786699459876566e+01 1.195887683256172807e+01 1.195680169753086375e+01 1.197763985339506121e+01 1.201580246913580297e+01 1.202182339891975360e+01 1.203756413966049443e+01 1.208323929398148167e+01 1.208587818287037052e+01 1.210061824845679013e+01 1.212130063657407497e+01 1.212370370370370409e+01 1.210867573302469147e+01 1.207656684027777771e+01 1.202589265046296241e+01 1.200819974922839606e+01 1.199717592592592652e+01 1.198600790895061685e+01 1.195199411651234556e+01 1.194284770447530875e+01 1.190548032407407497e+01 1.190315682870370217e+01 1.189300877700617320e+01 1.188845003858024718e+01 1.189396122685185198e+01 1.188597173996913625e+01 1.187218798225308625e+01 1.186856770833333385e+01 1.187980082947530924e+01 1.188558738425926009e+01 1.191339072145061628e+01 1.190541859567901284e+01 1.194953462577160508e+01 1.193374469521604908e+01 1.196545331790123434e+01 1.199114679783950521e+01 1.199778211805555550e+01 1.200973090277777722e+01 1.201906201774691318e+01 1.203772858796296319e+01 1.200769048996913568e+01 1.199074315200617313e+01 1.194158420138889021e+01 1.190817949459876601e+01 1.190152874228395063e+01 1.189153983410493787e+01 1.185921537422839478e+01 1.184512008101851777e+01 1.184246865354938372e+01 1.183496334876543088e+01 1.181274739583333222e+01 1.178569733796296326e+01 1.176927420910493716e+01 1.177064429012345670e+01 1.176106963734567934e+01 1.177240162037037052e+01 1.178914689429012341e+01 1.180224054783950649e+01 1.181887104552469125e+01 1.183113425925925988e+01 1.184834780092592688e+01 1.186280430169753153e+01 1.189275559413580297e+01 1.196896315586419668e+01 1.198158661265432201e+01 1.200394868827160444e+01 1.200445553626543216e+01 1.200169511959876445e+01 1.197353973765432045e+01 1.192072337962962969e+01 1.187939863040123534e+01 1.185768663194444450e+01 1.181540509259259331e+01 1.177684702932098659e+01 1.172380497685185219e+01 1.167791425540123562e+01 1.167374373070987659e+01 1.163116849922839613e+01 1.161363956404321129e+01 1.158725597993827172e+01 1.157100887345679041e+01 1.156963348765432009e+01 1.157610243055555443e+01 1.157052035108024768e+01 1.156908854166666778e+01 1.159927276234567906e+01 1.159400945216049372e+01 1.159010223765432102e+01 1.160426552854938365e+01 1.162300298996913561e+01 1.164819347993827137e+01 1.166687548225308646e+01 1.168613667052469296e+01 1.177432146990740769e+01 1.174724151234567948e+01 1.170656153549382772e+01 1.165992332175926016e+01 1.158439959490740634e+01 1.152215470679012377e+01 1.145101321373456749e+01 1.137708333333333321e+01 1.134229890046296241e+01 1.129028935185185212e+01 1.126454668209876608e+01 1.122876736111111207e+01 1.122139322916666515e+01 1.118460648148148096e+01 1.118298466435185290e+01 1.117192274305555699e+01 1.118683111496913618e+01 1.119180941358024661e+01 1.120862991898148131e+01 1.120391107253086460e+01 1.122527199074074211e+01 1.123797260802469111e+01 1.125540653935185098e+01 1.127942660108024775e+01 1.129041570216049450e+01 1.130760271990740762e+01 1.133069589120370324e+01 1.135509693287037081e+01 1.138131558641975261e+01 1.141528452932098858e+01 1.143877893518518540e+01 1.145916570216049379e+01 1.146247829861111178e+01 1.141431568287037024e+01 1.135607156635802362e+01 1.131912422839506149e+01 1.125954185956790177e+01 1.122106433256172764e+01 1.118751784336419597e+01 1.117125096450617328e+01 1.114215760030864288e+01 1.111376157407407383e+01 1.109843508873456841e+01 1.110195505401234506e+01 1.111214699074074019e+01 1.109086226851851897e+01 1.110714650848765395e+01 1.112775655864197510e+01 1.112854552469135783e+01 1.116570698302469111e+01 1.119251880787037123e+01 1.121248070987654266e+01 1.122516830632715923e+01 1.125341145833333378e+01 1.125418209876543152e+01 1.126759789737654316e+01 1.132247492283950585e+01 1.134698977623456884e+01 1.137823495370370352e+01 1.141114149305555436e+01 1.141973813657407533e+01 1.146334876543209802e+01 1.162303433641975303e+01 1.160199025848765331e+01 1.158618923611111207e+01 1.149929060570987716e+01 1.145648967978395127e+01 1.141650848765432080e+01 1.137655189043209880e+01 1.136272376543209894e+01 1.133433931327160415e+01 1.133108410493827201e+01 1.128963734567901156e+01 1.126338879243827229e+01 1.125067129629629648e+01 1.126058979552469097e+01 1.125948736496913583e+01 1.127105516975308674e+01 1.129217881944444457e+01 1.130036120756172835e+01 1.130216772762345734e+01 1.130970052083333321e+01 1.131464699074074076e+01 1.137709587191358018e+01 1.138728732638888985e+01 1.139978636188271466e+01 1.141651813271604787e+01 1.142555893132715994e+01 1.144918885030864253e+01 1.147450183256172807e+01 1.148199749228395028e+01 1.151430169753086474e+01 1.171463879243827222e+01 1.167377459490740854e+01 1.167993682484567763e+01 1.165981626157407369e+01 1.163660493827160458e+01 1.159719473379629662e+01 1.158194492669753117e+01 1.155207851080246861e+01 1.151122829861111008e+01 1.149293643904321094e+01 1.147959490740740662e+01 1.147155478395061756e+01 1.144687644675925853e+01 1.143666425540123299e+01 1.143815923996913497e+01 1.142352092978395106e+01 1.145592399691357954e+01 1.146105806327160614e+01 1.146228443287036924e+01 1.148002700617283978e+01 1.148815055941357954e+01 1.148728491512345684e+01 1.150738811728395028e+01 1.152332851080246989e+01 1.152514033564814788e+01 1.152697145061728534e+01 1.156731577932098887e+01 1.158522569444444450e+01 1.158986062885802326e+01 1.162978877314814774e+01 1.164754340277777622e+01 1.175993200231481417e+01 1.175273099922839570e+01 1.176461275077160451e+01 1.174887827932098716e+01 1.170908130787037038e+01 1.167418643904321129e+01 1.164656442901234534e+01 1.162572145061728435e+01 1.159679398148148266e+01 1.156177565586419753e+01 1.153908709490740669e+01 1.150058690200617306e+01 1.146987172067901284e+01 1.147753906250000000e+01 1.147263744212962955e+01 1.144626494984567877e+01 1.144335069444444564e+01 1.144710165895061671e+01 1.146739872685185091e+01 1.145405960648148103e+01 1.147046440972222214e+01 1.147145881558641811e+01 1.149287519290123427e+01 1.147553481867283942e+01 1.149435812114197475e+01 1.152115451388888800e+01 1.154900752314814838e+01 1.157090711805555472e+01 1.156498505015432166e+01 1.155945698302469005e+01 1.158894965277777622e+01 1.172496045524691510e+01 1.170418306327160529e+01 1.170295428240740598e+01 1.166187934027777828e+01 1.162280092592592595e+01 1.158974392361111150e+01 1.156584346064814817e+01 1.152546248070987644e+01 1.149535204475308525e+01 1.148206790123456855e+01 1.147613859953703574e+01 1.145083092206790099e+01 1.144694106867283878e+01 1.144664978780864217e+01 1.143474633487654302e+01 1.143149691358024711e+01 1.144183304398148060e+01 1.145891975308641975e+01 1.147780430169753174e+01 1.149584538966049507e+01 1.150166232638888886e+01 1.151275414737654224e+01 1.153388647762345620e+01 1.156971739969135804e+01 1.157857494212962912e+01 1.159399498456790134e+01 1.160833236882716157e+01 1.164010223765432173e+01 1.167131317515432087e+01 1.169177372685185290e+01 1.180278211805555699e+01 1.176899691358024747e+01 1.175840567129629655e+01 1.173608169367284049e+01 1.170447627314814909e+01 1.169252507716049472e+01 1.165903501157407440e+01 1.162968315972222122e+01 1.162694492669753110e+01 1.160603395061728449e+01 1.157908227237654231e+01 1.156860484182098858e+01 1.157079909336419732e+01 1.156713445216049507e+01 1.156488184799382601e+01 1.156696614583333194e+01 1.156490981867283985e+01 1.156380015432098851e+01 1.158593315972222193e+01 1.158535638503086496e+01 1.158193287037036967e+01 1.160523678626543287e+01 1.162451485339506263e+01 1.163435474537036995e+01 1.165775318287037088e+01 1.168544704861111150e+01 1.170967158564814881e+01 1.171334249614197454e+01 1.168301408179012313e+01 1.162543113425926045e+01 1.161916714891975388e+01 1.142542727623456855e+01 1.142089747299382729e+01 1.143836419753086275e+01 1.141498215663580140e+01 1.143189621913580112e+01 1.143349778163580233e+01 1.143372588734567863e+01 1.142799527391975367e+01 1.143801938657407469e+01 1.143961033950617256e+01 1.144011525848765487e+01 1.143821325231481545e+01 1.146126687885802475e+01 1.147341724537037067e+01 1.151185763888888935e+01 1.153027729552469260e+01 1.153623263888888850e+01 1.154913435570987623e+01 1.155918788580246925e+01 1.157828076774691439e+01 1.159133873456790198e+01 1.161697434413580332e+01 1.160995466820987687e+01 1.159139419367283885e+01 1.154978153935185148e+01 1.153437307098765530e+01 1.151898678626543315e+01 1.148992573302469111e+01 1.146570650077160458e+01 1.144290605709876552e+01 1.142734664351851848e+01 1.133319444444444457e+01 1.134260850694444400e+01 1.133920042438271558e+01 1.134494357638888928e+01 1.133511574074073991e+01 1.134584153163580211e+01 1.135238474151234556e+01 1.134781780478395063e+01 1.137140576774691247e+01 1.137105854552469175e+01 1.139244116512345606e+01 1.140746334876543244e+01 1.141519000771604908e+01 1.143252652391975310e+01 1.144736111111111043e+01 1.146110146604938329e+01 1.145645109953703766e+01 1.143754822530864246e+01 1.142006606867284013e+01 1.139017650462962905e+01 1.127631799768518484e+01 1.120330970293209916e+01 1.116562258873456770e+01 1.112364293981481467e+01 1.108212239583333414e+01 1.105142891589506249e+01 1.104470727237654337e+01 1.103056857638888921e+01 1.101726466049382758e+01 1.101093653549382800e+01 1.100732880015432080e+01 1.102452787422839542e+01 1.101173369984567962e+01 1.099919511959876672e+01 1.100552131558641911e+01 1.101769434799382630e+01 1.104545235339506171e+01 1.104916184413580282e+01 1.106554157021604823e+01 1.109740740740740783e+01 1.112099537037036967e+01 1.115181134259259110e+01 1.113288097993827108e+01 1.109897328317901177e+01 1.106566550925925974e+01 1.100852044753086467e+01 1.096887056327160614e+01 1.112766396604938279e+01 1.144148871527777622e+01 1.197566984953703795e+01 1.224806327160493780e+01 1.235498215663580268e+01 1.242038387345679062e+01 1.245687258873456749e+01 1.248137635030864168e+01 1.250231722608024576e+01 1.252799672067901149e+01 1.256921151620370480e+01 1.260906780478395106e+01 1.261328173225308547e+01 1.263608072916666636e+01 1.278876784336419625e+01 1.275834876543209795e+01 1.280297116126543244e+01 1.282011043595679034e+01 1.285927806712962962e+01 1.288273099922839471e+01 1.290839216820987545e+01 1.292075520833333258e+01 1.294857494212963012e+01 1.296272231867284042e+01 1.294132667824074012e+01 1.290083574459876559e+01 1.282349537037037024e+01 1.277349054783950599e+01 1.273575376157407391e+01 1.272100935570987623e+01 1.270742525077160501e+01 1.269533516589506128e+01 1.268794511959876559e+01 1.266428481867284006e+01 1.266236979166666643e+01 1.265223283179012448e+01 1.263896990740740733e+01 1.262225501543209916e+01 1.262931905864197546e+01 1.263673804012345769e+01 1.266618489583333229e+01 1.267741560570987680e+01 1.269151379243827193e+01 1.271905767746913618e+01 1.272322820216049344e+01 1.279649594907407462e+01 1.277306857638888893e+01 1.279487750771605015e+01 1.281200135030864118e+01 1.282873939043209965e+01 1.284628086419753146e+01 1.289736304012345514e+01 1.290541859567901284e+01 1.293910638503086474e+01 1.293122202932098830e+01 1.296845630787036896e+01 1.296481963734567877e+01 1.292549141589506156e+01 1.286833188657407412e+01 1.281881076388888907e+01 1.279161651234567820e+01 1.278557677469135712e+01 1.276666136188271494e+01 1.275574652777777729e+01 1.274622444058642046e+01 1.273212770061728349e+01 1.272096788194444450e+01 1.269762249228394957e+01 1.270032455632716051e+01 1.269932195216049386e+01 1.272226224922839499e+01 1.273337480709876601e+01 1.275577498070987659e+01 1.275554349922839492e+01 1.274900945216049308e+01 1.279159336419753146e+01 1.278054446373456798e+01 1.282420428240740762e+01 1.285807339891975332e+01 1.287207320601851812e+01 1.289039110725308745e+01 1.292908661265432180e+01 1.294741174768518555e+01 1.294725308641975303e+01 1.296935185185185091e+01 1.298440489969135747e+01 1.299498649691357954e+01 1.296938850308641911e+01 1.291688175154320994e+01 1.285049816743827122e+01 1.280663435570987652e+01 1.280490885416666735e+01 1.279159239969135875e+01 1.280061390817901312e+01 1.278688416280864182e+01 1.279023341049382800e+01 1.278627989969135825e+01 1.277579378858024661e+01 1.275517264660493844e+01 1.274814091435185226e+01 1.274815200617284106e+01 1.275004726080246975e+01 1.277184027777777686e+01 1.278958960262345634e+01 1.280879822530864232e+01 1.280937307098765565e+01 1.287150221836419739e+01 1.282496720679012192e+01 1.284652536651234556e+01 1.287947434413580261e+01 1.292428915895061792e+01 1.295474295910493900e+01 1.295278790509259181e+01 1.296708622685185119e+01 1.299572096836419632e+01 1.303364728009259110e+01 1.305249951774691475e+01 1.307615547839506220e+01 1.308622878086419661e+01 1.304613184799382708e+01 1.298596595293209965e+01 1.295104745370370480e+01 1.294324266975308646e+01 1.294858024691358089e+01 1.294107253086419718e+01 1.293924961419753039e+01 1.295444155092592631e+01 1.294687114197530775e+01 1.295018566743827293e+01 1.291827015817901270e+01 1.292295283564814845e+01 1.292277729552469268e+01 1.292389081790123484e+01 1.294638840663580304e+01 1.296469955632715987e+01 1.296487075617283935e+01 1.300378665123456656e+01 1.305075327932098794e+01 1.301484712577160430e+01 1.303766927083333194e+01 1.306350501543209930e+01 1.307566936728395213e+01 1.309503665123456884e+01 1.312491705246913654e+01 1.315577160493827158e+01 1.315851996527777779e+01 1.316992042824074183e+01 1.318193383487654380e+01 1.317393518518518469e+01 1.311674961419753060e+01 1.303398630401234470e+01 1.302219425154321009e+01 1.300334008487654280e+01 1.300847993827160387e+01 1.301008921682098851e+01 1.303993634259259338e+01 1.303256992669752989e+01 1.299634114583333222e+01 1.298343074845679013e+01 1.299488570601851833e+01 1.298774257330246940e+01 1.300863715277777821e+01 1.300368827160493801e+01 1.303082224151234669e+01 1.304515287422839442e+01 1.305792245370370352e+01 1.306181905864197468e+01 1.314359133873456820e+01 1.311244695216049472e+01 1.312294174382715894e+01 1.314763117283950677e+01 1.315600742669752954e+01 1.318391444830246861e+01 1.319099922839506256e+01 1.320992283950617363e+01 1.321657262731481453e+01 1.314032793209876537e+01 1.308759162808641996e+01 1.303440923996913625e+01 1.301779658564814746e+01 1.301258777006172807e+01 1.297918354552469111e+01 1.296909770447530796e+01 1.296971981095678927e+01 1.295444540895061891e+01 1.293090518904320874e+01 1.291727864583333485e+01 1.291324025848765444e+01 1.292162471064814788e+01 1.292828993055555564e+01 1.293883825231481488e+01 1.295621720679012334e+01 1.295773485725308660e+01 1.297157841435185155e+01 1.297960696373456813e+01 1.298184268904321037e+01 1.297473524305555515e+01 1.299279320987654351e+01 1.309610146604938308e+01 1.306268856095678998e+01 1.308021074459876409e+01 1.309929012345678956e+01 1.314327208719135776e+01 1.313879147376543344e+01 1.312151282793209894e+01 1.305421055169753153e+01 1.300829089506172842e+01 1.297271170910493865e+01 1.290649884259259217e+01 1.289312017746913597e+01 1.286424768518518569e+01 1.283126253858024768e+01 1.282375964506172927e+01 1.279664303626543287e+01 1.281042486496913568e+01 1.279599392361111043e+01 1.277712480709876530e+01 1.277646749614197574e+01 1.277855661651234698e+01 1.280978877314814746e+01 1.282063657407407398e+01 1.282964265046296326e+01 1.282875385802469204e+01 1.284430266203703574e+01 1.287522376543209823e+01 1.290107831790123427e+01 1.291145254629629591e+01 1.291647038966049443e+01 1.293925829475308653e+01 1.310154513888888950e+01 1.306814236111111072e+01 1.308554157021604958e+01 1.310628809799382744e+01 1.311117814429012363e+01 1.305490547839506199e+01 1.299983892746913661e+01 1.294534963348765366e+01 1.291808979552469161e+01 1.288900993441358089e+01 1.288046971450617306e+01 1.286800733024691290e+01 1.286705005787037059e+01 1.285817901234567984e+01 1.283368152006172735e+01 1.282167968749999964e+01 1.280498649691358004e+01 1.281073206018518640e+01 1.282632040895061820e+01 1.285276957947530896e+01 1.284836467978395014e+01 1.288376302083333336e+01 1.289622106481481545e+01 1.290250868055555600e+01 1.291471547067901149e+01 1.292319540895061891e+01 1.295167872299382772e+01 1.294423514660493879e+01 1.298006462191358068e+01 1.299762586805555564e+01 1.322019193672839421e+01 1.316124614197530995e+01 1.309848813657407440e+01 1.302266444830246961e+01 1.298000241126543308e+01 1.291818190586419668e+01 1.288425202546296333e+01 1.285984037422839421e+01 1.284693094135802482e+01 1.284540075231481460e+01 1.284012490354938230e+01 1.280772569444444464e+01 1.280206886574074154e+01 1.280347077546296397e+01 1.279989776234567955e+01 1.282089506172839499e+01 1.282296489197530853e+01 1.284873505015432116e+01 1.286314670138888872e+01 1.287130497685185126e+01 1.288012827932098858e+01 1.288017168209876573e+01 1.290053771219135825e+01 1.289605709876543216e+01 1.290876591435185183e+01 1.292605854552469147e+01 1.294991415895061770e+01 1.297564477237654224e+01 1.297885754243827172e+01 1.291576099537037159e+01 1.285040316358024803e+01 1.256487895447530967e+01 1.254800974151234527e+01 1.256738618827160359e+01 1.257325038580246890e+01 1.257371431327160494e+01 1.258287229938271601e+01 1.259380063657407334e+01 1.259595727237654295e+01 1.257133150077160444e+01 1.256384886188271466e+01 1.255968749999999901e+01 1.257937162422839528e+01 1.259789158950617427e+01 1.261543595679012419e+01 1.261485339506172743e+01 1.261972656250000036e+01 1.265112750771604944e+01 1.268028935185185091e+01 1.268320408950617306e+01 1.271478057484567792e+01 1.272622636959876630e+01 1.275113763503086339e+01 1.277680796682098752e+01 1.279985773533950599e+01 1.281360291280864061e+01 1.282511622299382736e+01 1.278927758487654387e+01 1.271827739197530960e+01 1.264566454475308710e+01 1.261041087962962948e+01 1.258992766203703795e+01 1.243890190972222243e+01 1.241045669367283999e+01 1.241373890817901149e+01 1.242697675540123470e+01 1.243403501157407476e+01 1.244988329475308753e+01 1.242715904706790120e+01 1.242705680941358004e+01 1.245016010802469175e+01 1.246599054783950677e+01 1.249309413580246897e+01 1.250159625771605043e+01 1.253802806712963047e+01 1.258076003086419625e+01 1.259885657793209823e+01 1.261561487268518533e+01 1.266653452932098745e+01 1.269539737654321065e+01 1.273243586033950692e+01 1.276657744984567877e+01 1.279150752314814810e+01 1.282729021990740748e+01 1.285538628472222378e+01 1.287453462577160579e+01 1.287208236882716150e+01 1.282509645061728421e+01 1.276844232253086275e+01 1.273995659722222307e+01 1.273609375000000021e+01 1.273789062500000036e+01 1.265989342206790091e+01 1.261171151620370345e+01 1.262529899691358004e+01 1.264580005787036932e+01 1.265564332561728378e+01 1.266055603780864125e+01 1.267427613811728371e+01 1.268930121527777821e+01 1.270038435570987545e+01 1.271096113040123399e+01 1.272187837577160430e+01 1.274492139274691382e+01 1.276148003472222214e+01 1.278129870756172970e+01 1.281879484953703674e+01 1.284030333719135797e+01 1.285797260802469033e+01 1.288450472608024633e+01 1.290423080632716157e+01 1.293033323688271530e+01 1.295241271219135903e+01 1.299922501929012419e+01 1.299914400077160614e+01 1.296221932870370352e+01 1.291086371527777743e+01 1.286611159336419696e+01 1.283167438271605043e+01 1.284248939043209958e+01 1.283618103780864317e+01 1.285252652391975303e+01 1.286542390046296269e+01 1.278370949074074048e+01 1.276080439814814937e+01 1.278154706790123463e+01 1.280019917052469225e+01 1.281235580632715987e+01 1.282209490740740598e+01
