2.167585778356481399e+02 2.167559360532407595e+02 2.167165422453703627e+02 2.165467944637345852e+02 2.164727295524691328e+02 2.164690682870370324e+02 2.164801494984567967e+02 2.164852536651234516e+02 2.164902628279320993e+02 2.164810879629629596e+02 2.164920047260802676e+02 2.164863671874999795e+02 2.164834370177468941e+02 2.164785691550925719e+02 2.165735947145061857e+02 2.165457687114197540e+02 2.164393479938271412e+02 2.163176364776234664e+02 2.162016825810185310e+02 2.161286323302469157e+02 2.160835966435185185e+02 2.160678694058642009e+02 2.160603423996913648e+02 2.162454880401234618e+02 2.163997497106481376e+02 2.164701128472222251e+02 2.164966343557098867e+02 2.165101138117283881e+02 2.165182262731481728e+02 2.165385440779321016e+02 2.165463261959876604e+02 2.162284008487654319e+02 2.162700757137345704e+02 2.162527131558641997e+02 2.162347125771605079e+02 2.162516946373456790e+02 2.162552411265432113e+02 2.162494574652777715e+02 2.162517066936728440e+02 2.162495153356481410e+02 2.162614154128086454e+02 2.162745278742283972e+02 2.162656843171296259e+02 2.162588512731481671e+02 2.162604475308641838e+02 2.162678284143518681e+02 2.162663946759259090e+02 2.162645857445987474e+02 2.162654918981481558e+02 2.162642153742283995e+02 2.162614038387345659e+02 2.162503110532407504e+02 2.162493614969135933e+02 2.162501924189814986e+02 2.162510247878086602e+02 2.162421754436728349e+02 2.162363744212962899e+02 2.162330666473765461e+02 2.162319198495370358e+02 2.162227690972222263e+02 2.162163030478395171e+02 2.162078727816357855e+02 2.160178607253086511e+02 2.160514920910493686e+02 2.160539973958333348e+02 2.160768041087962956e+02 2.160806066743827216e+02 2.160908396026234755e+02 2.160959090470678916e+02 2.161014289158950703e+02 2.160887104552469111e+02 2.160815417631172863e+02 2.160823090277777681e+02 2.160876109182098617e+02 2.160897318672839731e+02 2.160907301311728475e+02 2.160953009259259261e+02 2.160915094521604942e+02 2.160830608603394865e+02 2.160792438271604965e+02 2.160827956211419973e+02 2.160749512924382714e+02 2.160806746720678859e+02 2.160716483410493822e+02 2.160494536072530707e+02 2.160508150077160678e+02 2.160520799575617445e+02 2.160446821952160406e+02 2.160188083526234664e+02 2.160131693672839504e+02 2.159994709683641929e+02 2.159849257330246814e+02 2.159653105709876684e+02 2.156726818094136036e+02 2.157069912229938211e+02 2.157446436149691351e+02 2.157668161651234584e+02 2.157792920524691169e+02 2.157896629050925981e+02 2.157891493055555543e+02 2.158024493634259500e+02 2.158121614583333212e+02 2.158065364583333405e+02 2.157967944637345852e+02 2.157924580439814690e+02 2.157847391010802482e+02 2.157908897569444662e+02 2.157895852623456676e+02 2.157791690779320959e+02 2.157706737075617411e+02 2.157654320987654160e+02 2.157625091628086409e+02 2.157650607638888971e+02 2.157666329089506121e+02 2.157708521412037044e+02 2.157759476273148209e+02 2.157715649112654148e+02 2.157676408179012526e+02 2.157603940007716119e+02 2.157546330054012174e+02 2.157579793595679121e+02 2.157409577546296191e+02 2.157465634645061812e+02 2.157392452739197495e+02 2.155713623649691328e+02 2.156004248649691419e+02 2.156253153935185196e+02 2.156468026620370324e+02 2.156455685763888823e+02 2.156426514274691328e+02 2.156374898726851939e+02 2.156353356481481569e+02 2.156305796682098617e+02 2.156433709490740966e+02 2.156403091242283949e+02 2.156315668402777703e+02 2.156284910300925901e+02 2.156248804012345488e+02 2.156313247492283836e+02 2.156160214120370426e+02 2.156118402777777874e+02 2.156116666666666788e+02 2.156079644097222285e+02 2.156114617091049297e+02 2.156125993441358162e+02 2.156084317129629824e+02 2.156041333912037032e+02 2.156058945794753186e+02 2.155980242091049490e+02 2.155821195023148107e+02 2.155721595293209703e+02 2.155623736496913807e+02 2.155549445408950646e+02 2.155450525655864169e+02 2.155455618248456631e+02 2.153380560378086557e+02 2.153756134259259341e+02 2.154003631365740716e+02 2.154097106481481489e+02 2.154192746913580265e+02 2.154307021604938086e+02 2.154304952739197745e+02 2.154308738425926038e+02 2.154358767361111120e+02 2.154457412229938313e+02 2.154433738425925924e+02 2.154327039930555543e+02 2.154219444444444491e+02 2.154204079861111154e+02 2.154155565200617275e+02 2.153961660879629676e+02 2.153821088927469134e+02 2.153774146412036998e+02 2.153640846836419769e+02 2.153654311342592678e+02 2.153556269290123453e+02 2.153620124421296396e+02 2.153486607831790138e+02 2.153488425925926038e+02 2.153411762152777840e+02 2.153366194058641838e+02 2.153283593749999909e+02 2.153268571566358105e+02 2.153201572145061959e+02 2.153174426118827114e+02 2.153112249228395001e+02 2.151612606095679041e+02 2.151889091435185151e+02 2.152093065200617445e+02 2.152090832368827193e+02 2.152053727816358162e+02 2.152038030478395001e+02 2.152010624035494004e+02 2.151903481867284142e+02 2.151702218364197279e+02 2.151828071952160428e+02 2.151696272183641838e+02 2.151643248456790047e+02 2.151573668981481262e+02 2.151532296489197336e+02 2.151526514274691522e+02 2.151422472993827171e+02 2.151451408179012219e+02 2.151424522569444662e+02 2.151389342206790047e+02 2.151386140046296305e+02 2.151257417052469236e+02 2.151154137731481626e+02 2.151191825810185208e+02 2.151107257908950601e+02 2.151060074266975164e+02 2.151027517361110881e+02 2.150971026234567773e+02 2.150860016396605090e+02 2.150751051311728475e+02 2.150696662808641975e+02 2.150631655092592496e+02 2.148696870177469123e+02 2.148868479938271605e+02 2.149074860146604919e+02 2.149118243634259500e+02 2.149221821952160383e+02 2.149339091435185196e+02 2.149410411844135922e+02 2.149423451967592769e+02 2.149541893325617252e+02 2.149541628086419678e+02 2.149538035300925856e+02 2.149519627700617264e+02 2.149488734567901247e+02 2.149571894290123453e+02 2.149585508294753140e+02 2.149567915702160406e+02 2.149712987075617150e+02 2.149607407407407322e+02 2.149577039930555600e+02 2.149522873263888698e+02 2.149473963155864169e+02 2.149352102623456631e+02 2.149365306712963104e+02 2.149370389660493856e+02 2.149347661072530968e+02 2.149362003279320845e+02 2.149322506751543074e+02 2.149237205825617139e+02 2.149244733796296316e+02 2.149324710648148198e+02 2.148373572530864237e+02 2.148713040123456892e+02 2.148791430362654467e+02 2.148898828124999909e+02 2.148909857253086386e+02 2.149047405478395092e+02 2.149069777199074167e+02 2.149043031442901395e+02 2.152695095486110972e+02 2.160696223958333348e+02 2.170919058641975425e+02 2.173928351658950646e+02 2.175317086226851870e+02 2.176142877121913557e+02 2.176794425154321004e+02 2.177260865162037078e+02 2.177572791280864237e+02 2.177809191743827171e+02 2.178136323302469179e+02 2.178282185570987792e+02 2.178438088348765405e+02 2.178521561535493731e+02 2.178581958912037067e+02 2.178647709297839583e+02 2.178747313850308558e+02 2.178928298611111245e+02 2.179003110532407277e+02 2.179064067322530889e+02 2.179129229359567717e+02 2.179200212191358048e+02 2.179302276234568012e+02 2.179722246334876559e+02 2.180478178047839322e+02 2.180463999807098787e+02 2.180530343364197279e+02 2.180494733796296316e+02 2.180518451003086398e+02 2.180585026041666481e+02 2.180665282600308785e+02 2.180668677662036998e+02 2.180692057291666686e+02 2.180676798804012435e+02 2.180605222800926128e+02 2.180611622299382759e+02 2.180648871527777715e+02 2.180700014467592496e+02 2.180673644868826955e+02 2.180767298418209919e+02 2.180838623649691215e+02 2.180720027970679098e+02 2.180522887731481489e+02 2.180660869984567967e+02 2.180586173804012162e+02 2.180619497492284040e+02 2.180561902006172943e+02 2.180615731095679166e+02 2.180549561149691442e+02 2.180559153163580390e+02 2.180644319058641827e+02 2.180582146990740853e+02 2.180646971450617286e+02 2.180623736496913807e+02 2.179236212384259090e+02 2.179963237847222217e+02 2.180065504436728645e+02 2.179951051311728349e+02 2.179876239390432033e+02 2.179816888503086432e+02 2.179781129436728406e+02 2.179829393325617275e+02 2.179812852044753129e+02 2.179837774884259147e+02 2.179982093942901145e+02 2.180036048418209873e+02 2.180154861111111302e+02 2.180151851851851745e+02 2.180107417052469145e+02 2.180121223958333303e+02 2.180095138888888755e+02 2.180144801311728600e+02 2.180191324266975244e+02 2.180357368827160371e+02 2.180366777584876559e+02 2.180410763888888823e+02 2.180673056520061550e+02 2.180535079089506212e+02 2.180561738040123316e+02 2.180516169945987883e+02 2.180431187307098924e+02 2.180441054205246871e+02 2.180454147376543119e+02 2.180489998070987667e+02 2.179004812885802664e+02 2.179626919367284188e+02 2.179576133294752935e+02 2.179716237461419723e+02 2.179705840084876627e+02 2.179730020254629608e+02 2.179782547260802517e+02 2.179792134452160326e+02 2.179596373456789991e+02 2.179492409336419598e+02 2.179686762152777817e+02 2.179674990354938302e+02 2.179648919753086602e+02 2.179625781249999932e+02 2.179641020447530764e+02 2.179666864390432295e+02 2.179750506365740819e+02 2.179807093942901304e+02 2.179778983410493822e+02 2.179724348958333167e+02 2.179716734182098605e+02 2.179828313078703843e+02 2.179882667824074076e+02 2.179757291666666674e+02 2.179785320216049342e+02 2.179861467978394955e+02 2.179748427854938200e+02 2.179775954861111131e+02 2.179663802083333337e+02 2.179675462962963195e+02 2.179828843557098708e+02 2.178207040895061652e+02 2.178950564236111234e+02 2.179044941165123248e+02 2.179035845871913750e+02 2.179114819637345590e+02 2.179244328703703673e+02 2.179142418981481626e+02 2.179250858410493947e+02 2.179330647183641929e+02 2.179403597608024654e+02 2.179389477237654376e+02 2.179433203125000205e+02 2.179476138117283881e+02 2.179465248842592757e+02 2.179546595293209919e+02 2.179498225308641963e+02 2.179592322530864124e+02 2.179525679976851791e+02 2.179428057484567773e+02 2.179458777006172738e+02 2.179409413580247019e+02 2.179360595100308728e+02 2.179266020447530821e+02 2.179372690007716074e+02 2.179350443672839504e+02 2.179419632523148209e+02 2.179537287808641963e+02 2.179524146412037169e+02 2.179597236689814679e+02 2.179676191165123669e+02 2.179602020640431874e+02 2.177958791473765245e+02 2.178692057291666799e+02 2.178660561342592814e+02 2.178677763310185185e+02 2.178818484760802505e+02 2.178917062114197449e+02 2.178942250192901326e+02 2.178891980131172943e+02 2.178891811342592462e+02 2.178916570216049422e+02 2.178817602237654398e+02 2.178875409915123669e+02 2.178863396990740853e+02 2.178771137152777726e+02 2.178864482060185424e+02 2.178952859760802312e+02 2.179044376929012117e+02 2.179067881944444309e+02 2.179198374807098730e+02 2.179144068287037044e+02 2.179117722800925776e+02 2.179102391975308421e+02 2.179175212191358071e+02 2.179158193479938177e+02 2.179144077932098753e+02 2.178972704475308717e+02 2.179003481867283938e+02 2.179110532407407277e+02 2.179079832175926015e+02 2.178981949266975278e+02 2.177167308063271776e+02 2.177965813078703547e+02 2.177941068672839435e+02 2.177973374807098708e+02 2.177937369791666526e+02 2.178064785879629710e+02 2.178143721064814997e+02 2.178063170331789991e+02 2.178209119405864271e+02 2.178205613425925833e+02 2.178296937692901167e+02 2.178304779128086466e+02 2.178334760802469248e+02 2.178224585262345840e+02 2.178191367669753049e+02 2.178260546875000045e+02 2.178158145254629687e+02 2.178227367862654376e+02 2.178301977237654512e+02 2.178365277777777749e+02 2.178327199074074088e+02 2.178215432098765518e+02 2.178107108410493993e+02 2.178074093364197381e+02 2.177914564043209964e+02 2.178076437114197574e+02 2.178027652391975266e+02 2.178016488233024575e+02 2.178000048225308660e+02 2.177811005015431931e+02 2.177972154706790207e+02 2.176375067515432136e+02 2.177192582947530752e+02 2.177271619405864271e+02 2.177223765432098617e+02 2.177251856674382680e+02 2.177367066936728293e+02 2.177459866898147993e+02 2.177506626157407652e+02 2.177526581790123430e+02 2.177572458526234698e+02 2.177484794560185151e+02 2.177423500192901145e+02 2.177378197337963002e+02 2.177400569058641793e+02 2.177415827546296327e+02 2.177443648726851961e+02 2.177502782600308535e+02 2.177595953896604897e+02 2.177711255787037032e+02 2.177779914158950874e+02 2.177732248263889119e+02 2.177888893711419769e+02 2.177897743055555395e+02 2.177968214699074281e+02 2.177981206597222297e+02 2.178144015239197699e+02 2.177982344714506269e+02 2.177838855131172693e+02 2.178059182098765518e+02 2.177946522955246849e+02 2.177890186149691374e+02 2.176233608217592348e+02 2.177040538194444252e+02 2.177110831404320948e+02 2.177139539930555543e+02 2.177124720293209919e+02 2.177133526234567853e+02 2.177274324845678848e+02 2.177293074845678973e+02 2.177320997299382555e+02 2.177404769483024722e+02 2.177456548996913455e+02 2.177510267168210021e+02 2.177544073109567933e+02 2.177564284336419860e+02 2.177562929205246860e+02 2.177606500771604772e+02 2.177564448302469202e+02 2.177517124807098696e+02 2.177588252314814952e+02 2.177591555748456926e+02 2.177607532793209941e+02 2.177624725115740603e+02 2.177651287615740614e+02 2.177504928626543119e+02 2.177615031828703707e+02 2.177514920910493856e+02 2.177409712577160406e+02 2.177378891782407493e+02 2.177460334683642031e+02 2.177481283757715858e+02 2.175738835841049479e+02 2.176304335455246814e+02 2.176341020447530923e+02 2.176438411458333348e+02 2.176522820216049183e+02 2.176630034722222433e+02 2.176667071759259500e+02 2.176525954861111245e+02 2.176479079861111074e+02 2.176552401620370176e+02 2.176601437114197495e+02 2.176542698688271571e+02 2.176628867669753049e+02 2.176618344907407447e+02 2.176746489197530821e+02 2.176861024305555645e+02 2.176821069637345545e+02 2.176750371334876490e+02 2.176756168016975153e+02 2.176895399305555543e+02 2.176842660108024745e+02 2.176875115740740796e+02 2.176911699459876388e+02 2.176968214699074053e+02 2.177002213541666720e+02 2.176990041473765416e+02 2.177006794945987735e+02 2.177060214120370176e+02 2.177052261766975221e+02 2.177118364197530695e+02 2.177081351273148186e+02 2.175486212384259090e+02 2.176250081983024529e+02 2.176396325231481512e+02 2.176502073688271821e+02 2.176645944251543199e+02 2.176696508487654569e+02 2.176679957561728429e+02 2.176741618441357957e+02 2.176601041666666845e+02 2.176778684413580436e+02 2.176775679976851734e+02 2.176852338927469077e+02 2.177015398341049490e+02 2.176998273533950510e+02 2.177221402391975289e+02 2.177135937500000011e+02 2.177073177083333348e+02 2.177273384452160485e+02 2.177123143325617320e+02 2.177114409722222206e+02 2.177226335841049547e+02 2.177286998456789888e+02 2.177356225887345431e+02 2.177395442708333348e+02 2.177398977623456631e+02 2.177450298996913602e+02 2.177439646026234641e+02 2.177448505015431977e+02 2.177335542052469179e+02 2.177294579475308467e+02 2.177290239197530752e+02 2.175750091628086409e+02 2.176597680362654330e+02 2.176676702353395001e+02 2.176847699652777806e+02 2.177042173032407391e+02 2.177069637345679212e+02 2.177085570987654251e+02 2.177112524112654341e+02 2.177232445987654330e+02 2.177292481674382714e+02 2.177202647569444309e+02 2.177294188850308672e+02 2.177467867476851779e+02 2.177566367669753049e+02 2.177745167824074031e+02 2.177913729745370404e+02 2.177932315779320902e+02 2.177869511959876547e+02 2.177695177469135785e+02 2.177568648726851848e+02 2.177542110339506110e+02 2.177493803047839549e+02 2.177388614004629517e+02 2.177369053819444389e+02 2.177505931712962877e+02 2.177446383101851950e+02 2.177561583719135854e+02 2.177638932291666833e+02 2.177598037229938086e+02 2.177647497106481467e+02 2.176339250578703854e+02 2.177051012731481308e+02 2.177011974344135865e+02 2.177109919945987713e+02 2.177103669945987576e+02 2.177102797067901179e+02 2.177103366126543165e+02 2.177048210841049354e+02 2.177265335648148152e+02 2.177240740740740819e+02 2.177042144097222263e+02 2.176999575617283824e+02 2.177016724537037078e+02 2.177210570987654421e+02 2.177182233796296202e+02 2.177225689621913602e+02 2.177401017554012412e+02 2.177403178047839560e+02 2.177456129436728531e+02 2.177382089120370381e+02 2.177332127700617264e+02 2.177356949266975050e+02 2.177518007330246803e+02 2.177664911265432295e+02 2.177717602237654262e+02 2.177716710069444446e+02 2.177816488233024756e+02 2.177818060378086500e+02 2.177817655285493856e+02 2.178039371141975096e+02 2.178099276620370404e+02 2.176373181905864271e+02 2.177173239776234652e+02 2.177190205439814576e+02 2.177150737847222217e+02 2.177228800154321107e+02 2.177315851658950407e+02 2.177297598379629733e+02 2.177444791666666788e+02 2.177416063850308774e+02 2.177449951774691215e+02 2.177515263310185105e+02 2.177635387731481558e+02 2.177673220486111347e+02 2.177898210841049433e+02 2.177944912229938268e+02 2.178185059799382657e+02 2.178196489197530923e+02 2.178163560956789979e+02 2.178129263117284040e+02 2.178239342206790354e+02 2.178385059799382759e+02 2.178383130787036919e+02 2.178253192515432204e+02 2.178340880594135740e+02 2.178387311921296146e+02 2.178358362268518533e+02 2.178323992091049490e+02 2.178375284529321050e+02 2.178482880015432102e+02 2.178475057870370222e+02 2.178439318094135899e+02 2.177383386381172841e+02 2.178127932098765598e+02 2.178303930362654341e+02 2.178162548225308512e+02 2.178191869212962786e+02 2.178244155092592678e+02 2.178364395254629642e+02 2.178334804205246940e+02 2.178387813464506166e+02 2.178364448302469043e+02 2.178424315200617229e+02 2.178474638310185014e+02 2.178560040509259181e+02 2.178701953125000159e+02 2.178609481095678859e+02 2.178711873070987792e+02 2.178728853202160565e+02 2.178785918209876797e+02 2.178814945023148084e+02 2.178798042052468986e+02 2.178800535300925958e+02 2.178812808641975209e+02 2.178941743827160451e+02 2.178855951003086489e+02 2.178894159915123510e+02 2.179009606481481569e+02 2.179117423804012219e+02 2.179042308063271776e+02 2.179126142939814770e+02 2.179095495756172909e+02 2.177758506944444434e+02 2.178346397569444548e+02 2.178406370563271821e+02 2.178425882523148118e+02 2.178392693865740739e+02 2.178510879629629642e+02 2.178465726273147993e+02 2.178531095679012424e+02 2.178580676118827171e+02 2.178694208140432238e+02 2.178656114969135729e+02 2.178595698302469259e+02 2.178587210648148300e+02 2.178573939043209862e+02 2.178750819830246712e+02 2.178978433641975414e+02 2.178856500771604772e+02 2.178794270833333258e+02 2.178754991319444514e+02 2.178702445023148186e+02 2.178584500385802301e+02 2.178619053819444389e+02 2.178716242283950635e+02 2.178683516589506155e+02 2.178831852816358037e+02 2.178682947530864169e+02 2.178776924189814679e+02 2.178738425925925810e+02 2.178720085841049183e+02 2.178658863811728281e+02 2.178706278935185310e+02 2.177048673804012253e+02 2.177817057291666742e+02 2.177871711033950817e+02 2.178039216820987747e+02 2.178065986689814792e+02 2.178096874999999955e+02 2.178187427662037123e+02 2.178113112461419973e+02 2.178171455439814679e+02 2.178170587384259136e+02 2.178213589891975346e+02 2.178391623263889016e+02 2.178473288001543153e+02 2.178531356095678859e+02 2.178609982638888880e+02 2.178619193672839458e+02 2.178587823109567978e+02 2.178542336998456790e+02 2.178648181905864192e+02 2.178518648726851836e+02 2.178551861496913489e+02 2.178645717592592348e+02 2.178672294560185208e+02 2.178605536265432079e+02 2.178604967206790093e+02 2.178849667245370370e+02 2.179003067129629585e+02 2.178967968750000068e+02 2.178979904513888926e+02 2.178965166859567830e+02 2.178996436149691363e+02 2.177523529128086466e+02 2.178354292052469248e+02 2.178468277391975221e+02 2.178288580246913568e+02 2.178308637152777862e+02 2.178301528742283892e+02 2.178360845871913511e+02 2.178239486882716278e+02 2.178380135995370495e+02 2.178320842978394865e+02 2.178455203510802676e+02 2.178396778549382589e+02 2.178553134645061959e+02 2.178530975115740773e+02 2.178620052083333576e+02 2.178720722415123419e+02 2.178766314621913693e+02 2.178806274112654364e+02 2.178832489390431988e+02 2.178779653742284097e+02 2.178797704475308592e+02 2.178747593557098696e+02 2.178678187692901247e+02 2.178808140432098810e+02 2.178782474922839469e+02 2.178881341628086545e+02 2.178826919367283779e+02 2.178857132523148152e+02 2.178798900462963104e+02 2.178646440972222251e+02 2.177225747492284142e+02 2.178022178819444434e+02 2.178038864776234504e+02 2.178194237075617252e+02 2.178022892554012344e+02 2.178187176890432113e+02 2.178258641975308478e+02 2.178300805362654273e+02 2.178189091435185105e+02 2.178169593942901088e+02 2.178212085262345852e+02 2.178215128279321107e+02 2.178260339506172727e+02 2.178210976080247008e+02 2.178220577739197381e+02 2.178265803433641850e+02 2.178274869791666788e+02 2.178325800540123396e+02 2.178377604166666686e+02 2.178311863425925878e+02 2.178136072530864169e+02 2.178182822145061550e+02 2.178104253472222069e+02 2.178216420717592712e+02 2.178156949266975460e+02 2.178105574845678802e+02 2.178217780671296282e+02 2.178273022762345477e+02 2.178251639660493879e+02 2.178403018904321016e+02 2.178285662615740819e+02 2.176415176504629585e+02 2.177141391782407425e+02 2.177130931712962933e+02 2.177219473379629733e+02 2.177177049575617502e+02 2.177239255401234459e+02 2.177268532986111040e+02 2.177344618055555543e+02 2.177305512152777567e+02 2.177446624228394967e+02 2.177401263503086284e+02 2.177335431134259238e+02 2.177472241512345477e+02 2.177458540702160406e+02 2.177572120949074019e+02 2.177603829089506178e+02 2.177605926890431931e+02 2.177678732638889016e+02 2.177733092206790104e+02 2.177717939814814940e+02 2.177827078510802608e+02 2.177820905671296146e+02 2.177868002507715914e+02 2.177721590470679018e+02 2.177742230902777862e+02 2.177785310570987747e+02 2.177722333140432340e+02 2.177687495177469259e+02 2.177775651041666833e+02 2.177659090470679075e+02 2.177713339120370222e+02 2.175851789158950567e+02 2.176516652199074144e+02 2.176658415316358059e+02 2.176646252893518465e+02 2.176807961998456733e+02 2.176840952932098787e+02 2.176727170138888710e+02 2.176782359182098787e+02 2.176836617476851643e+02 2.176846392746913637e+02 2.176812500000000057e+02 2.176982884837962899e+02 2.177065417631172863e+02 2.177033945794753151e+02 2.176964318094135820e+02 2.177058487654321084e+02 2.177103370949074019e+02 2.177133622685185230e+02 2.177040909529321198e+02 2.176884592013888948e+02 2.176761265432098753e+02 2.176756124614197745e+02 2.176680888310185367e+02 2.176839843749999943e+02 2.176923953510802505e+02 2.177391068672839367e+02 2.177626740933641827e+02 2.177615923996913807e+02
1.087596450617283883e-01 1.102097800925925936e-01 1.152734374999999922e-01 1.452536651234567766e-01 1.818156828703703654e-01 2.002319637345678915e-01 2.122053433641975240e-01 2.202681327160493641e-01 2.249421296296296169e-01 2.195336612654320840e-01 2.176567322530864046e-01 2.189887152777777735e-01 2.212905092592592771e-01 2.164400077160494040e-01 2.584736689814814969e-01 2.538657407407407529e-01 2.237663966049382724e-01 1.769391396604938216e-01 1.360112847222222365e-01 1.044661458333333293e-01 8.010175540123457005e-02 6.134162808641975551e-02 5.050588348765432112e-02 7.139274691358024616e-02 1.113194444444444431e-01 1.245823688271604918e-01 1.430782214506172989e-01 1.548630401234567799e-01 1.667896412037037090e-01 1.735508294753086433e-01 1.880970293209876520e-01 2.308545524691358042e-01 1.860734953703703787e-01 1.647632137345678982e-01 1.631799768518518434e-01 1.719526427469135754e-01 1.749580439814814870e-01 1.763749035493827055e-01 1.790301890432098864e-01 1.776789158950617120e-01 1.795196759259259089e-01 1.765861304012345534e-01 1.763488618827160626e-01 1.761193094135802550e-01 1.750226658950617409e-01 1.734842785493827255e-01 1.716816165123456750e-01 1.756693672839506060e-01 1.735638503086419926e-01 1.729359567901234684e-01 1.715036651234567999e-01 1.693219521604938105e-01 1.687369791666666619e-01 1.695389660493827055e-01 1.712697723765432001e-01 1.709987461419752997e-01 1.725462962962962810e-01 1.712292631172839530e-01 1.700101273148148240e-01 1.715181327160494040e-01 1.711684992283950546e-01 1.700043402777777768e-01 2.230459104938271597e-01 1.692934992283950668e-01 1.575559413580246981e-01 1.653679591049382613e-01 1.721576003086419671e-01 1.680179398148148040e-01 1.708362268518518745e-01 1.703428819444444409e-01 1.706823881172839508e-01 1.696281828703703753e-01 1.683632330246913611e-01 1.715041473765432090e-01 1.697125771604938160e-01 1.680087770061728381e-01 1.688604359567901225e-01 1.693007330246913689e-01 1.696585648148148107e-01 1.709736689814815025e-01 1.696513310185185086e-01 1.718344907407407529e-01 1.673857060185185153e-01 1.677420910493827300e-01 1.681438078703703654e-01 1.683854166666666485e-01 1.687688078703703520e-01 1.719555362654321129e-01 1.685363618827160626e-01 1.671088927469135954e-01 1.684727044753086544e-01 1.675983796296296180e-01 1.655362654320987614e-01 2.215306712962963054e-01 1.646354166666666730e-01 1.630174575617283905e-01 1.657822145061728369e-01 1.645968364197530620e-01 1.669159915123456794e-01 1.624209104938271475e-01 1.669950810185185375e-01 1.663792438271604890e-01 1.643171296296296324e-01 1.630092592592592704e-01 1.616714891975308543e-01 1.628067129629629795e-01 1.633203125000000089e-01 1.619767554012345734e-01 1.638821373456789965e-01 1.616425540123456739e-01 1.616179591049382580e-01 1.619661458333333248e-01 1.614674961419753085e-01 1.615162037037037035e-01 1.587273341049382780e-01 1.577662037037037002e-01 1.571720679012345578e-01 1.560098379629629439e-01 1.596672453703703864e-01 1.583415316358024738e-01 1.589525462962962932e-01 1.581206597222222232e-01 1.603264853395061640e-01 1.607383294753086389e-01 2.213623649691358053e-01 1.582156635802469125e-01 1.504846643518518434e-01 1.546735146604938105e-01 1.569082754629629595e-01 1.572145061728394966e-01 1.575115740740740955e-01 1.586578896604938227e-01 1.593557098765432112e-01 1.604132908950617331e-01 1.610209297839506060e-01 1.591970486111111138e-01 1.558159722222222099e-01 1.585614390432098786e-01 1.552985146604938249e-01 1.575472608024691135e-01 1.578264853395061895e-01 1.555386766975308810e-01 1.529287229938271486e-01 1.507740162037037035e-01 1.516729359567901281e-01 1.516965663580246981e-01 1.528795331790123446e-01 1.552642746913580341e-01 1.555015432098765527e-01 1.533381558641975229e-01 1.516729359567901281e-01 1.527281057098765493e-01 1.564978780864197394e-01 1.557595486111111038e-01 1.518952546296296335e-01 2.059481095679012441e-01 1.491830632716049376e-01 1.458478009259259189e-01 1.482151813271604945e-01 1.503925540123456639e-01 1.524956597222222321e-01 1.509924768518518534e-01 1.527965856481481310e-01 1.510956790123456905e-01 1.515909529320987603e-01 1.525149498456790098e-01 1.523808834876543283e-01 1.498509837962962998e-01 1.482465277777777757e-01 1.483699845679012363e-01 1.466753472222222243e-01 1.465292245370370394e-01 1.456553819444444675e-01 1.457127700617283916e-01 1.456168016975308566e-01 1.442635995370370461e-01 1.458222415123456850e-01 1.467906057098765371e-01 1.467370756172839685e-01 1.470490933641975251e-01 1.449840856481481310e-01 1.436752507716049510e-01 1.427271412037036946e-01 1.436414930555555691e-01 1.423109567901234551e-01 1.436328124999999845e-01 2.092221257716049276e-01 1.499715470679012230e-01 1.412162422839506326e-01 1.438536844135802351e-01 1.442684220679012475e-01 1.451620370370370339e-01 1.467727623456789865e-01 1.458236882716049398e-01 1.484114583333333570e-01 1.471990740740740655e-01 1.452179783950617309e-01 1.438734567901234496e-01 1.440856481481481710e-01 1.433907214506172645e-01 1.454349922839506259e-01 1.417939814814814792e-01 1.436250964506172734e-01 1.451181520061728403e-01 1.420259452160493874e-01 1.403221450617284094e-01 1.446667631172839641e-01 1.406124614197530875e-01 1.416854745370370317e-01 1.442611882716049454e-01 1.419810956790123480e-01 1.422255979938271686e-01 1.409818672839505960e-01 1.439887152777777901e-01 1.401128472222222254e-01 1.409775270061728314e-01 1.416488233024691401e-01 2.123505015432098630e-01 1.476716820987654388e-01 1.419092399691357920e-01 1.435156249999999800e-01 1.429456018518518445e-01 1.416637731481481255e-01 1.421937692901234507e-01 1.455512152777777846e-01 1.463773148148148073e-01 1.419994212962963076e-01 1.422931134259259045e-01 1.433492476851851716e-01 1.434538966049382636e-01 1.430820794753086544e-01 1.434567901234568010e-01 1.421344521604938349e-01 1.391681134259259156e-01 1.361930941358024671e-01 1.360961612654321140e-01 1.355328896604938160e-01 1.374609374999999911e-01 1.357518325617283750e-01 1.363155864197530820e-01 1.344449266975308865e-01 1.360971257716049321e-01 1.359548611111111305e-01 1.355492862654320840e-01 1.358376736111111260e-01 1.357021604938271619e-01 1.361029128086419515e-01 2.105420524691357931e-01 1.446513310185185142e-01 1.391483410493827011e-01 1.387813464506172934e-01 1.372603202160493641e-01 1.365779320987654255e-01 1.416965663580247170e-01 1.408458719135802506e-01 1.767544367283950535e-01 2.151195987654321018e-01 2.823278356481481732e-01 3.028481867283950302e-01 3.147540509259258990e-01 3.275342399691358319e-01 3.301957947530864690e-01 3.297810570987654288e-01 3.283646797839506193e-01 3.313618827160493829e-01 3.326413001543210290e-01 3.296214313271604857e-01 3.322771990740740478e-01 3.293971836419753441e-01 3.341280864197531120e-01 3.329499421296296391e-01 3.334090470679012541e-01 3.279017168209876210e-01 3.265967399691357964e-01 3.232942708333332860e-01 3.231577932098765871e-01 3.194362461419752997e-01 3.217216435185185630e-01 3.959755979938271442e-01 3.160850694444444220e-01 3.101601080246913500e-01 3.106809413580247092e-01 3.097969714506172978e-01 3.133342978395061706e-01 3.113025655864197772e-01 3.157875192901234418e-01 3.139718364197530698e-01 3.111694637345678860e-01 3.161617476851851793e-01 3.166603973765432234e-01 3.114318094135802850e-01 3.107513503086419826e-01 3.113469328703703520e-01 3.117554012345679082e-01 3.150781249999999867e-01 3.122960069444444819e-01 3.080642361111111116e-01 3.110570987654320829e-01 3.134553433641975029e-01 3.207417052469135887e-01 3.176678240740740677e-01 3.102927276234567766e-01 3.057595486111110983e-01 3.059640239197530809e-01 3.055951003086419537e-01 3.127985146604938538e-01 3.084654706790123657e-01 3.164269868827160881e-01 3.118417245370370128e-01 3.946503665123456961e-01 3.074985532407407129e-01 3.048900462962962910e-01 3.108950617283950391e-01 3.115089699074073959e-01 3.180290316358024838e-01 3.159104938271605212e-01 3.166714891975308532e-01 3.203153935185185097e-01 3.203785686728394810e-01 3.166705246913580352e-01 3.171672453703703320e-01 3.214414544753086411e-01 3.211231674382715728e-01 3.192269483024691157e-01 3.187061149691358120e-01 3.181442901234567966e-01 3.143769290123457072e-01 3.176046489197530964e-01 3.184495563271604879e-01 3.192732445987654377e-01 3.169159915123456739e-01 3.200882523148148029e-01 3.160074266975309021e-01 3.173601466049382758e-01 3.153669945987654377e-01 3.194560185185185142e-01 3.203592785493827311e-01 3.175896990740740833e-01 3.212606095679012008e-01 4.048466435185185119e-01 3.194487847222222121e-01 3.068344907407407618e-01 3.132306134259259522e-01 3.172010030864197416e-01 3.202932098765432500e-01 3.215398341049382491e-01 3.201519097222222388e-01 3.241440007716049343e-01 3.226147762345679126e-01 3.232740162037037179e-01 3.258834876543209580e-01 3.238247492283950479e-01 3.255468750000000133e-01 3.252772955246913678e-01 3.189448302469136132e-01 3.182209683641975539e-01 3.183781828703703409e-01 3.168161651234567833e-01 3.143021797839505860e-01 3.164438657407407374e-01 3.186627121913580551e-01 3.212432484567900870e-01 3.180666473765432212e-01 3.253607253086419626e-01 3.262692901234567899e-01 3.178954475308642391e-01 3.148977623456790109e-01 3.217529899691357609e-01 3.155261381172839719e-01 3.190393518518518379e-01 4.127218364197530742e-01 3.140750385802468791e-01 3.098341049382716261e-01 3.125708912037037379e-01 3.138059413580246981e-01 3.141792052469135621e-01 3.148644868827160659e-01 3.190571952160493607e-01 3.258130787037037401e-01 3.236419753086420270e-01 3.217910879629629628e-01 3.232711226851852082e-01 3.180623070987654288e-01 3.176017554012345867e-01 3.214993248456790020e-01 3.242414158950617242e-01 3.253862847222222521e-01 3.276162229938271442e-01 3.153713348765432301e-01 3.162186535493827222e-01 3.219936342592592537e-01 3.182479745370370150e-01 3.228125000000000022e-01 3.194294945987654621e-01 3.175675154320987681e-01 3.203351658950617242e-01 3.190880594135802051e-01 3.157137345679012497e-01 3.172362075617283783e-01 3.223611111111110983e-01 3.139592978395061573e-01 4.004378858024691401e-01 3.114515817901234440e-01 3.072574266975308666e-01 3.097714120370370638e-01 3.170833333333333282e-01 3.149739583333333592e-01 3.179292052469135932e-01 3.170577739197530942e-01 3.149565972222221899e-01 3.202179783950617198e-01 3.219666280864197372e-01 3.215485146604938338e-01 3.163339120370370350e-01 3.217283950617283450e-01 3.237827932098765182e-01 3.252256944444444353e-01 3.258222415123456783e-01 3.231766010802469280e-01 3.244164737654320896e-01 3.185821759259259700e-01 3.205883487654320740e-01 3.191608796296296346e-01 3.177478780864197438e-01 3.176630015432098664e-01 3.211033950617284138e-01 3.219058641975308666e-01 3.171932870370370305e-01 3.228814621913579930e-01 3.237702546296296058e-01 3.210686728395061862e-01 4.082460455246913478e-01 3.244150270061728070e-01 3.137331211419753241e-01 3.152850115740740700e-01 3.144256365740740744e-01 3.124628665123456717e-01 3.159162808641975406e-01 3.197318672839505882e-01 3.219376929012345290e-01 3.202907986111110938e-01 3.218499228395061418e-01 3.227044753086419360e-01 3.202961033950617042e-01 3.176292438271605123e-01 3.181563464506173000e-01 3.181438078703703320e-01 3.205434992283950901e-01 3.172159529320987548e-01 3.166763117283950546e-01 3.181269290123456828e-01 3.191266396604938160e-01 3.188681520061728558e-01 3.141440007716049809e-01 3.131987847222222343e-01 3.167655285493827244e-01 3.103655478395062062e-01 3.155936535493826800e-01 3.115557484567901270e-01 3.139337384259259234e-01 3.058482831790123591e-01 3.101813271604938471e-01 4.089655671296296147e-01 3.116261574074074003e-01 2.958275462962962621e-01 3.016054205246913589e-01 2.981303047839506393e-01 2.994921875000000067e-01 2.990784143518518401e-01 2.982614776234567833e-01 3.010686728395061684e-01 3.056023341049382558e-01 3.084148341049383069e-01 3.006524884259259012e-01 3.027676504629629450e-01 3.021696566358024749e-01 3.031163194444444486e-01 3.002498070987654200e-01 2.971272183641975317e-01 2.982417052469135688e-01 2.988604359567901270e-01 2.943933256172839852e-01 2.952420910493827599e-01 2.963609182098765338e-01 2.990620177469135998e-01 3.016536458333333171e-01 3.006481481481481643e-01 2.983111496913580241e-01 2.975458140432098442e-01 2.970814043209876743e-01 2.942582947530864579e-01 2.942780671296296169e-01 2.956028163580246559e-01 3.838729745370370039e-01 2.906288580246913500e-01 2.860190007716049698e-01 2.843205054012345467e-01 2.825675154320987370e-01 2.877907986111110650e-01 2.916237461419752819e-01 2.888517554012345889e-01 2.923230131172839252e-01 2.937461419753086278e-01 2.932383294753086456e-01 2.926673418209876920e-01 2.889891975308642169e-01 2.899373070987654177e-01 2.894034529320987370e-01 2.936651234567901336e-01 2.939486882716049188e-01 2.893315972222221810e-01 2.926461226851851949e-01 2.884842785493826889e-01 2.900347222222222077e-01 2.924373070987654200e-01 2.895838155864197683e-01 2.912109374999999889e-01 2.981346450617283761e-01 2.915735918209876321e-01 2.916652199074074026e-01 2.888802083333333326e-01 2.830960648148148073e-01 2.845659722222222410e-01 3.909987461419752730e-01 2.921238425925925530e-01 2.868566743827160592e-01 2.914023919753086500e-01 2.930936535493827155e-01 2.917380401234567766e-01 2.969241898148148318e-01 2.963556134259259234e-01 2.932576195987654510e-01 2.969266010802468769e-01 2.971923225308641947e-01 2.968267746913580418e-01 2.952744020061728314e-01 2.985349151234568121e-01 2.963266782407407152e-01 2.932098765432099019e-01 2.938112461419752908e-01 2.948755787037036780e-01 2.918055555555555403e-01 2.938208912037037490e-01 2.953153935185185430e-01 2.931626157407407618e-01 2.955695408950617109e-01 2.924430941358024949e-01 2.955483217592592693e-01 2.924184992283950790e-01 2.903679591049382891e-01 2.857696759259259478e-01 2.862794174382716217e-01 2.906061921296296258e-01 2.921185378086419981e-01 3.937620563271604923e-01 2.984283371913579730e-01 2.892346643518518556e-01 2.879841820987654177e-01 2.935701195987654444e-01 2.966608796296296147e-01 2.943287037037037313e-01 2.933844521604938582e-01 2.955271026234567722e-01 2.976644483024691312e-01 2.986323302469136021e-01 2.974749228395061618e-01 2.923061342592592760e-01 2.930314429012345623e-01 2.943455825617284360e-01 2.974459876543210091e-01 2.927555941358024882e-01 2.927030285493827377e-01 2.944280478395061573e-01 2.900501543209876298e-01 2.887104552469135776e-01 2.877956211419753219e-01 2.919724151234568410e-01 2.888011188271605301e-01 2.868658371913580529e-01 2.859418402777777479e-01 2.966039737654320718e-01 2.955328896604938471e-01 2.875462962962962998e-01 2.905396412037036802e-01 2.933540702160494229e-01 3.857036072530863891e-01 2.886641589506173111e-01 2.845924961419752930e-01 2.846850887345679371e-01 2.905502507716049010e-01 2.981814236111111072e-01 2.941237461419752841e-01 2.930709876543209913e-01 2.975506365740741010e-01 3.003708526234568077e-01 2.959799382716049587e-01 2.994000771604938271e-01 2.991710069444444287e-01 2.964515817901234862e-01 2.986443865740740500e-01 3.003018904320987614e-01 2.948360339506172489e-01 2.972173996913580196e-01 3.020269097222221810e-01 2.988122106481481688e-01 2.989269868827160170e-01 2.958950617283950812e-01 2.954817708333333237e-01 2.940007716049382602e-01 2.952874228395061529e-01 2.999455054012345467e-01 2.972082368827160259e-01 2.970804398148148007e-01 2.997116126543209469e-01 3.029721257716049276e-01 3.957961998456790420e-01 3.000139853395061840e-01 2.917153742283950524e-01 2.920625964506172734e-01 2.941623263888888951e-01 2.976919367283950568e-01 2.977772955246913433e-01 3.026986882716049543e-01 3.049995177469135843e-01 3.052387152777777390e-01 3.084939236111111094e-01 3.092235725308641880e-01 3.088488618827160970e-01 3.084558256172839630e-01 3.085136959876543239e-01 3.100462962962963198e-01 3.063922646604937960e-01 3.053563850308642080e-01 3.096050347222222276e-01 3.184847608024691801e-01 3.075279706790123302e-01 3.074797453703703720e-01 3.115200617283950812e-01 3.121556712962962887e-01 3.096802662037037024e-01 3.117004243827160570e-01 3.111718749999999867e-01 3.092177854938271686e-01 3.113459683641975340e-01 3.124729938271605389e-01 3.131881751543209580e-01 3.912442129629629672e-01 3.073471257716049454e-01 2.961453510802469213e-01 2.971518132716049476e-01 3.031327160493826889e-01 3.043967013888889128e-01 3.100607638888889239e-01 3.139337384259259234e-01 3.101089891975308821e-01 3.087176890432098419e-01 3.075419560185185253e-01 3.078563850308642103e-01 3.098379629629629539e-01 3.139699074074073781e-01 3.141724537037036691e-01 3.126929012345678882e-01 3.131577932098765227e-01 3.129721257716049365e-01 3.122468171296296502e-01 3.132846257716049299e-01 3.117399691358024860e-01 3.136332947530863779e-01 3.127406442901234929e-01 3.128684413580247181e-01 3.057016782407407374e-01 3.074942129629629761e-01 3.088310185185185186e-01 3.118123070987654510e-01 3.126215277777777968e-01 3.127883873456790420e-01 3.066059027777777724e-01 4.041247106481481444e-01 3.120500578703703787e-01 3.025781250000000311e-01 3.024107831790123768e-01 3.087987075617283916e-01 3.048885995370370638e-01 3.078993055555555580e-01 3.123017939814814459e-01 3.111130401234568077e-01 3.106741898148148162e-01 3.082923418209876920e-01 3.149508101851852260e-01 3.086313657407407374e-01 3.120553626543209891e-01 3.061713927469135732e-01 3.098500192901234573e-01 3.077382330246913322e-01 3.119868827160493518e-01 3.113609182098765471e-01 3.153255208333333171e-01 3.142814429012346089e-01 3.109712577160493874e-01 3.037625385802468769e-01 3.073490547839506370e-01 3.062538580246913500e-01 3.069039351851852171e-01 3.037278163580247048e-01 3.029287229938271708e-01 3.047289737654320652e-01 3.075925925925925841e-01 3.984587191358024971e-01 3.051403356481481310e-01 2.965923996913580329e-01 2.975569058641975295e-01 3.071817129629629828e-01 3.064583333333333326e-01 3.058699845679012652e-01 3.065190972222222032e-01 3.075178433641975739e-01 3.090456211419753130e-01 3.149006558641975206e-01 3.147207754629629539e-01 3.106346450617283872e-01 3.098225308641975317e-01 3.101914544753086589e-01 3.135556520061728580e-01 3.145717592592592871e-01 3.119338348765431923e-01 3.100115740740740922e-01 3.097067901234568099e-01 3.077334104938271309e-01 3.127536651234567588e-01 3.100496720679012386e-01 3.115171682098765160e-01 3.185546874999999889e-01 3.165128279320987281e-01 3.116782407407407418e-01 3.110310570987654399e-01 3.110161072530864268e-01 3.111419753086420159e-01 3.149946952160493918e-01 4.020611496913580329e-01 3.112123842592592338e-01 3.045423418209876609e-01 3.100062692901234818e-01 3.132508680555555758e-01 3.086974344135802739e-01 3.136535493827160570e-01 3.199377893518518534e-01 3.169960455246913500e-01 3.137350501543209602e-01 3.109510030864197638e-01 3.125405092592592471e-01 3.170992476851852149e-01 3.253414351851851571e-01 3.253279320987654266e-01 3.219767554012345490e-01 3.158695023148148096e-01 3.170351080246913700e-01 3.184220679012345623e-01 3.195013503086419626e-01 3.217095871913580041e-01 3.180815972222222343e-01 3.199122299382715640e-01 3.200988618827160792e-01 3.193190586419752952e-01 3.206066743827160059e-01 3.224035493827160370e-01 3.232802854938272019e-01 3.221011766975309110e-01 3.239009452160493963e-01 3.184437692901234129e-01 4.102623456790123191e-01 3.145336612654320851e-01 3.110238233024691379e-01 3.134379822530863891e-01 3.151152584876543150e-01 3.159244791666666607e-01 3.190181327160493963e-01 3.179436728395061418e-01 3.166184413580246937e-01 3.201827739197530831e-01 3.200221836419753219e-01 3.207725694444444331e-01 3.228766396604938471e-01 3.186443865740740677e-01 3.212114197530864246e-01 3.172935956790123302e-01 3.195298032407407618e-01 3.189737654320987659e-01 3.197733410493827089e-01 3.194053819444444553e-01 3.211381172839505860e-01 3.223910108024691801e-01 3.227266589506172512e-01 3.220336612654320918e-01 3.243180941358024261e-01 3.259336419753086078e-01 3.195741705246913922e-01 3.183540702160493896e-01 3.217862654320987614e-01 3.195293209876542972e-01 4.028467399691357809e-01 3.152536651234567611e-01 3.139723186728394788e-01 3.141382137345679060e-01 3.196961805555555980e-01 3.202527006172839474e-01 3.229229359567901136e-01 3.285190007716049521e-01 3.242549189814814548e-01 3.220997299382715728e-01 3.214023919753086211e-01 3.229046103395061817e-01 3.278901427469135821e-01 3.237924382716049210e-01 3.219883294753086433e-01 3.240210262345679104e-01 3.222665895061728181e-01 3.266097608024691179e-01 3.270534336419753108e-01 3.213411458333332860e-01 3.237379436728394788e-01 3.212557870370370550e-01 3.303626543209876587e-01 3.304219714506173022e-01 3.243330439814814947e-01 3.226384066358024549e-01 3.159510030864197683e-01 3.172974537037036580e-01 3.170138888888888729e-01 3.176818094135802628e-01 3.246585648148148096e-01 4.040359760802469391e-01 3.173712384259259611e-01 3.119208140432098708e-01 3.186988811728395099e-01 3.190080054012345290e-01 3.238638117283950679e-01 3.241386959876543239e-01 3.252420910493827311e-01 3.206471836419753085e-01 3.268041087962962887e-01 3.283179012345678882e-01 3.215022183641975118e-01 3.163517554012345578e-01 3.204759837962962710e-01 3.194357638888888906e-01 3.170341435185185519e-01 3.182209683641975539e-01 3.188295717592592449e-01 3.164539930555555491e-01 3.148143325617284161e-01 3.178722993827160503e-01 3.202131558641975739e-01 3.172530864197530831e-01 3.169849537037037202e-01 3.210942322530864201e-01 3.191748649691357742e-01 3.161766975308642480e-01 3.161299189814815169e-01 3.104041280864197616e-01 3.132831790123457028e-01 3.095076195987654377e-01 4.019029706790123169e-01 3.121281828703703631e-01 3.031602044753086700e-01 3.089819637345678771e-01 3.080063657407407507e-01 3.135079089506173089e-01 3.147439236111110872e-01 3.104224537037037490e-01 3.085865162037036979e-01 3.074098186728395077e-01 3.048722029320987681e-01 3.107643711419753041e-01 3.102560763888889128e-01 3.118455825617283961e-01 3.083183834876543350e-01 3.051620370370370372e-01 3.080073302469135688e-01 3.066700424382716172e-01 3.047463348765431790e-01 3.065354938271604990e-01 3.049402006172839408e-01 3.022120949074074137e-01 3.054364390432098841e-01 3.025848765432098686e-01 3.052290702160493918e-01 3.158217592592592604e-01 3.196788194444444287e-01 3.203920717592592671e-01
1.331893566743827151e+01 1.327472366898148159e+01 1.316388985339506235e+01 1.289191213348765430e+01 1.278693094135802433e+01 1.274984953703703638e+01 1.276047453703703738e+01 1.275437499999999957e+01 1.274995129243827030e+01 1.273355516975308710e+01 1.273930507330246975e+01 1.273366657021604986e+01 1.272425154320987772e+01 1.272954764660493865e+01 1.283761140046296312e+01 1.281895158179012384e+01 1.272076340663580218e+01 1.259229118441357897e+01 1.244926359953703709e+01 1.231280526620370352e+01 1.215710310570987751e+01 1.203333912037037123e+01 1.193106240354938308e+01 1.210106963734567920e+01 1.229044753086419739e+01 1.237979311342592581e+01 1.243468798225308625e+01 1.247369116512345677e+01 1.251789882330246861e+01 1.256417197145061770e+01 1.261273533950617320e+01 1.265198736496913590e+01 1.264547743055555529e+01 1.257551745756172856e+01 1.253615451388888857e+01 1.254373263888888879e+01 1.254140817901234506e+01 1.253610918209876601e+01 1.253389226466049422e+01 1.253413435570987744e+01 1.255759596836419689e+01 1.255388261959876672e+01 1.254753038194444592e+01 1.255393711419753089e+01 1.255145833333333449e+01 1.253658227237654366e+01 1.252938946759259231e+01 1.251789062499999972e+01 1.252511911651234477e+01 1.252834731867283935e+01 1.252797887731481552e+01 1.251902150848765594e+01 1.250699170524691439e+01 1.249878713348765302e+01 1.249962143132716186e+01 1.249319974922839549e+01 1.249262201003086403e+01 1.250361496913580339e+01 1.251389178240740740e+01 1.250937885802469296e+01 1.248197241512345634e+01 1.249297260802469189e+01 1.248688994984567913e+01 1.243772135416666735e+01 1.243348668981481531e+01 1.243414592978395028e+01 1.242651475694444407e+01 1.243971064814814831e+01 1.244648341049382800e+01 1.245134211033950677e+01 1.243895929783950649e+01 1.244443190586419767e+01 1.243767505787037031e+01 1.243027102623456770e+01 1.241729600694444358e+01 1.242836419753086474e+01 1.243971547067901184e+01 1.243792004243827165e+01 1.242573495370370473e+01 1.241662567515431981e+01 1.241699508101851812e+01 1.241061824845679062e+01 1.242251494984567906e+01 1.241431761188271565e+01 1.240179542824074055e+01 1.240931423611111128e+01 1.242037856867283985e+01 1.240969232253086396e+01 1.238730324074074041e+01 1.238025125385802561e+01 1.238022472993827172e+01 1.237256703317901341e+01 1.236290075231481467e+01 1.228997444058641975e+01 1.224519434799382722e+01 1.225697048611111128e+01 1.227553964120370367e+01 1.229202112268518476e+01 1.228872540509259181e+01 1.228946614583333385e+01 1.230231529706790106e+01 1.230323688271604787e+01 1.230661313657407341e+01 1.231437307098765466e+01 1.231218846450617299e+01 1.230110001929012320e+01 1.230277777777777715e+01 1.229980420524691453e+01 1.227647038966049386e+01 1.227903115354938279e+01 1.227211805555555557e+01 1.227315297067901234e+01 1.227600405092592695e+01 1.229257716049382765e+01 1.229315104166666650e+01 1.228459538966049358e+01 1.226972945601851706e+01 1.226198929398148074e+01 1.225630883487654366e+01 1.224807918595679013e+01 1.225259066358024640e+01 1.225632957175925952e+01 1.226690586419753082e+01 1.227729600694444301e+01 1.228888454861110979e+01 1.222243827160493801e+01 1.223441502700617356e+01 1.224566309799382680e+01 1.224906539351851897e+01 1.225857156635802525e+01 1.224468412422839414e+01 1.224839216820987708e+01 1.226398871527777779e+01 1.225932581018518519e+01 1.225294560185185233e+01 1.225226562499999972e+01 1.224785011574074112e+01 1.225124517746913533e+01 1.225308015046296362e+01 1.223593942901234577e+01 1.223191695601851769e+01 1.223828896604938343e+01 1.224552420910493744e+01 1.223642264660493773e+01 1.222871527777777878e+01 1.222698398919752982e+01 1.222498312114197638e+01 1.222708574459876552e+01 1.222064332561728506e+01 1.220915991512345578e+01 1.219862413194444528e+01 1.218513310185185183e+01 1.219340133101851897e+01 1.218179301697530903e+01 1.217082609953703631e+01 1.218911988811728442e+01 1.214649402006172707e+01 1.214513744212963076e+01 1.214943817515432123e+01 1.216217689043209838e+01 1.215634693287037038e+01 1.216192949459876438e+01 1.215216049382716079e+01 1.215128713348765466e+01 1.216237316743827002e+01 1.216558931327160487e+01 1.216060908564814902e+01 1.214708719135802362e+01 1.214729311342592588e+01 1.213656153549382744e+01 1.211408323688271693e+01 1.211944685570987623e+01 1.212548466435185190e+01 1.212494791666666671e+01 1.212032793209876580e+01 1.211197820216049337e+01 1.210227092978395014e+01 1.209603684413580282e+01 1.209161554783950621e+01 1.209523244598765501e+01 1.210176649305555507e+01 1.210265046296296276e+01 1.210199845679012221e+01 1.209515769675926045e+01 1.209576630015432208e+01 1.209161265432098809e+01 1.214635079089506320e+01 1.210958815586419668e+01 1.211117476851851826e+01 1.209990740740740733e+01 1.209477141203703709e+01 1.207997202932098624e+01 1.207347704475308525e+01 1.206569878472222257e+01 1.205027536651234499e+01 1.204955005787037159e+01 1.204106143904320980e+01 1.203779851466049422e+01 1.204186487268518491e+01 1.204579185956790077e+01 1.205758632330246982e+01 1.202668209876543237e+01 1.201887586805555408e+01 1.201087721836419853e+01 1.200823447145061706e+01 1.201642361111110979e+01 1.200823157793209894e+01 1.200203462577160529e+01 1.200777391975308639e+01 1.200245370370370424e+01 1.200202305169753103e+01 1.200424961419752989e+01 1.200136477623456877e+01 1.198483748070987609e+01 1.199167004243827073e+01 1.197447964891975225e+01 1.197753520447530740e+01 1.201867380401234442e+01 1.196837673611111086e+01 1.196700761959876580e+01 1.194906057098765473e+01 1.195182339891975332e+01 1.196549093364197525e+01 1.196278645833333343e+01 1.196269048996913575e+01 1.198124517746913575e+01 1.197035783179012292e+01 1.196945023148148124e+01 1.195180217978395021e+01 1.195098379629629548e+01 1.195210262345679020e+01 1.196488667052469168e+01 1.196310329861111121e+01 1.196019193672839442e+01 1.194338059413580311e+01 1.193415557484567913e+01 1.194499373070987680e+01 1.194784239969135875e+01 1.193047646604938272e+01 1.193413869598765409e+01 1.192659529320987666e+01 1.192133535879629491e+01 1.191701147762345769e+01 1.191329475308642039e+01 1.191585503472222207e+01 1.191665171682098823e+01 1.192480709876543088e+01 1.202321277006172906e+01 1.197011043595679070e+01 1.195017746913580403e+01 1.193538917824074019e+01 1.193439139660493709e+01 1.192971498842592659e+01 1.194590760030864196e+01 1.194008005401234662e+01 1.212940779320987517e+01 1.242293161651234534e+01 1.283846788194444422e+01 1.302173225308641946e+01 1.311641734182098773e+01 1.317382571373456912e+01 1.323249517746913639e+01 1.330241174768518420e+01 1.331846257716049386e+01 1.332890769675925924e+01 1.335730082947530839e+01 1.335051842206790162e+01 1.335099344135802468e+01 1.337420621141975197e+01 1.336353057484567763e+01 1.337208622685185233e+01 1.338637104552469204e+01 1.340249324845679091e+01 1.342385706018518476e+01 1.342553626543209866e+01 1.341554060570987517e+01 1.341936197916666806e+01 1.342945408950617292e+01 1.361235146604938251e+01 1.363017409336419661e+01 1.359615692515432173e+01 1.355492283950617427e+01 1.356579282407407305e+01 1.359052083333333449e+01 1.356131413966049415e+01 1.355751880787036967e+01 1.359125434027777857e+01 1.358320119598765530e+01 1.358550877700617399e+01 1.356469907407407405e+01 1.358164448302469296e+01 1.358329619984567849e+01 1.357590760030864097e+01 1.358160445601851940e+01 1.356826051311728421e+01 1.357924141589506029e+01 1.358824701003086410e+01 1.359457851080246904e+01 1.359485869984567863e+01 1.357554349922839521e+01 1.356699893904320930e+01 1.357936776620370445e+01 1.356813175154321094e+01 1.356259693287037038e+01 1.356776765046296340e+01 1.355589891975308525e+01 1.357739535108024675e+01 1.356298996913580268e+01 1.355745081018518583e+01 1.361085069444444429e+01 1.359130449459876466e+01 1.354833767361111008e+01 1.351912760416666615e+01 1.350877652391975303e+01 1.349806375385802326e+01 1.351556086033950521e+01 1.353308593750000099e+01 1.352544753086419860e+01 1.351343750000000021e+01 1.352212914737654259e+01 1.353183159722222229e+01 1.353318431712962955e+01 1.352915750385802518e+01 1.355339795524691482e+01 1.352362991898148259e+01 1.351108844521604979e+01 1.351861014660493865e+01 1.352064814814814753e+01 1.353178096064814717e+01 1.352617621527777914e+01 1.353307436342592496e+01 1.352976321373456692e+01 1.353345679012345748e+01 1.354038966049382609e+01 1.351357494212962962e+01 1.351717206790123527e+01 1.352253134645061827e+01 1.351044415509259267e+01 1.351865981867284106e+01 1.357269386574074055e+01 1.355190441743827101e+01 1.351057773919753124e+01 1.348709780092592503e+01 1.350720196759259295e+01 1.347600501543209894e+01 1.346154658564814710e+01 1.351119068287037095e+01 1.348164110725308618e+01 1.348739004629629612e+01 1.347491030092592723e+01 1.348348524305555607e+01 1.347785156249999972e+01 1.350030478395061628e+01 1.350121141975308525e+01 1.349764756944444422e+01 1.348990306712962983e+01 1.346738281250000036e+01 1.349089361496913497e+01 1.349323447145061827e+01 1.348686246141975253e+01 1.349811728395061827e+01 1.351552903163580233e+01 1.351746141975308646e+01 1.351814718364197532e+01 1.350265914351851926e+01 1.351025945216049351e+01 1.351229263117283885e+01 1.350715422453703773e+01 1.350487123842592574e+01 1.351045910493827229e+01 1.350068238811728349e+01 1.350421440972222342e+01 1.347904369212962905e+01 1.345857011959876637e+01 1.344178674768518533e+01 1.344793885030864189e+01 1.344846161265432016e+01 1.345960262345678871e+01 1.347752363040123491e+01 1.346646508487654259e+01 1.348108989197530860e+01 1.345343412422839613e+01 1.345644724151234506e+01 1.346580198688271501e+01 1.347408613040123448e+01 1.346427228009259203e+01 1.345836612654321129e+01 1.344412471064814874e+01 1.346528452932098752e+01 1.346477189429012356e+01 1.347108458719135804e+01 1.345370659722222229e+01 1.347422116126543123e+01 1.350145399305555571e+01 1.348541087962962948e+01 1.347525173611111171e+01 1.348569106867283907e+01 1.350726128472222243e+01 1.350741801697530775e+01 1.349260368441358082e+01 1.348986014660493815e+01 1.351423418209876637e+01 1.349663194444444336e+01 1.345999180169753018e+01 1.345725163966049287e+01 1.345145109953703688e+01 1.343038097993827229e+01 1.344375048225308689e+01 1.342687741126543344e+01 1.343437258873456841e+01 1.344479456018518526e+01 1.343401234567901170e+01 1.344939380787037031e+01 1.342351273148148039e+01 1.342792293595678998e+01 1.342655285493827222e+01 1.346494309413580304e+01 1.345227575231481509e+01 1.347768856095679091e+01 1.347444299768518583e+01 1.346239679783950649e+01 1.344763069058641847e+01 1.344466820987654287e+01 1.345468605324074041e+01 1.344797887731481545e+01 1.344779417438271629e+01 1.344956886574074062e+01 1.345222463348765451e+01 1.343837818287036967e+01 1.343106626157407391e+01 1.343272183641975204e+01 1.341388117283950621e+01 1.340717399691358125e+01 1.338224922839506092e+01 1.338007764274691347e+01 1.336153260030864232e+01 1.336297935956790006e+01 1.335398775077160494e+01 1.337841338734567920e+01 1.338791039737654387e+01 1.339928722993827037e+01 1.339847704475308632e+01 1.339810522762345713e+01 1.340113570601851833e+01 1.338858940972222378e+01 1.337302228009259331e+01 1.336467255015432087e+01 1.337211130401234627e+01 1.339540364583333343e+01 1.341521412037037031e+01 1.339243007330246904e+01 1.337543547453703674e+01 1.338929928626543209e+01 1.338500096450617427e+01 1.336365644290123456e+01 1.336202449845679041e+01 1.337225260416666650e+01 1.336716965663580403e+01 1.339163049768518476e+01 1.340915557484567877e+01 1.341536603009259210e+01 1.340318769290123591e+01 1.336485918209876544e+01 1.335181471836419753e+01 1.333159191743827066e+01 1.330709153163580183e+01 1.331990596064814802e+01 1.331431423611111065e+01 1.332580632716049251e+01 1.334286120756172878e+01 1.335823977623456749e+01 1.336837432484567856e+01 1.337005979938271594e+01 1.334780285493827101e+01 1.335818142361111072e+01 1.336502748842592503e+01 1.335124517746913497e+01 1.338201147762345578e+01 1.337847849151234669e+01 1.338353684413580247e+01 1.338486496913580304e+01 1.339644386574073920e+01 1.339862075617283921e+01 1.340372733410493744e+01 1.341156057098765331e+01 1.339782455632716029e+01 1.339822048611111072e+01 1.339884596836419739e+01 1.337940972222222236e+01 1.337604600694444557e+01 1.339411458333333194e+01 1.339866222993827094e+01 1.338269579475308646e+01 1.341803578317901113e+01 1.340253375771604816e+01 1.336287760416666615e+01 1.333957706404321009e+01 1.332459876543209987e+01 1.335227285879629555e+01 1.337547743055555571e+01 1.335587721836419739e+01 1.334377363040123399e+01 1.335700424382715923e+01 1.334804108796296340e+01 1.334835599922839577e+01 1.333862654320987673e+01 1.335425443672839485e+01 1.334629195601851848e+01 1.338134066358024832e+01 1.335881076388888822e+01 1.336759500385802468e+01 1.336120804398148110e+01 1.336015142746913575e+01 1.334946325231481445e+01 1.335600597993827066e+01 1.336142795138888850e+01 1.335962673611111207e+01 1.335937355324074183e+01 1.335883150077160586e+01 1.335632908950617370e+01 1.336057291666666735e+01 1.335267505787037123e+01 1.333393759645061749e+01 1.334265769675925917e+01 1.332642939814814831e+01 1.328758680555555571e+01 1.328706114969135754e+01 1.328495129243827222e+01 1.328543354552469147e+01 1.328483410493827144e+01 1.328596305941358047e+01 1.329550395447530775e+01 1.331343750000000092e+01 1.332817901234567870e+01 1.330360966435185155e+01 1.331096257716049358e+01 1.331571807484567849e+01 1.331173562885802397e+01 1.332131413966049216e+01 1.331667631172839528e+01 1.329572771990740598e+01 1.328813609182098787e+01 1.330673321759259231e+01 1.330358844521604844e+01 1.330096836419753181e+01 1.328897087191358040e+01 1.327629484953703631e+01 1.329482253086419696e+01 1.329566695601851833e+01 1.331095968364197546e+01 1.330362509645061664e+01 1.330330584490740797e+01 1.330165268132715894e+01 1.328967399691358153e+01 1.330744743441358047e+01 1.331803915895061685e+01 1.327461902006172778e+01 1.328588927469135683e+01 1.328542341820987716e+01 1.327465133101851968e+01 1.327854841820987808e+01 1.326326388888888985e+01 1.326748697916666586e+01 1.327599247685185091e+01 1.330139612268518512e+01 1.329862413194444493e+01 1.329189814814814774e+01 1.331845679012345585e+01 1.330526089891975339e+01 1.331597173996913597e+01 1.329268566743827229e+01 1.331852671682098688e+01 1.330651379243827037e+01 1.329542390046296241e+01 1.329763937114197603e+01 1.333428771219135811e+01 1.333377073688271608e+01 1.331216628086419718e+01 1.330114679783950749e+01 1.331786265432098659e+01 1.332810329861111143e+01 1.333085069444444493e+01 1.331801842206790099e+01 1.332344859182098773e+01 1.330925009645061685e+01 1.329974151234567792e+01 1.330865258487654224e+01 1.329430121527777686e+01 1.329213348765432201e+01 1.328022858796296291e+01 1.327872974537037187e+01 1.328084346064814802e+01 1.327373505015432009e+01 1.328434944058641953e+01 1.330532552083333364e+01 1.332532744984567863e+01 1.332544945987654295e+01 1.332774884259259274e+01 1.331488088348765331e+01 1.332628423996913725e+01 1.334639419367283963e+01 1.333893180941358025e+01 1.333827690972222157e+01 1.332306520061728428e+01 1.331428096064814781e+01 1.330146701388888886e+01 1.332357108410493751e+01 1.331073013117283921e+01 1.332487991898148039e+01 1.330658371913580140e+01 1.331666618441358096e+01 1.332965904706790106e+01 1.334026861496913696e+01 1.332220679012345776e+01 1.331819155092592588e+01 1.331197675540123448e+01 1.332175781249999957e+01 1.327541184413580311e+01 1.326319782021604787e+01 1.328071662808642017e+01 1.326953896604938343e+01 1.327669126157407398e+01 1.326459876543209937e+01 1.325847318672839492e+01 1.325949363425925931e+01 1.328001253858024633e+01 1.326770785108024775e+01 1.328664448302469125e+01 1.328074942129629576e+01 1.328938753858024668e+01 1.330625385802469296e+01 1.330531876929012292e+01 1.327816406250000014e+01 1.329638020833333378e+01 1.330610194830246940e+01 1.332611207561728506e+01 1.330332995756172743e+01 1.330506606867283814e+01 1.331958429783950493e+01 1.333259741512345720e+01 1.330336467978395021e+01 1.330952112268518484e+01 1.330789834104938230e+01 1.331924430941358040e+01 1.332794029706790084e+01 1.332714891975308547e+01 1.333619791666666643e+01 1.333680217978395177e+01 1.330852092978395085e+01 1.324591483410493709e+01 1.327395302854938208e+01 1.327232011959876701e+01 1.327184799382716029e+01 1.327736352237654316e+01 1.327303722993827151e+01 1.328863618827160487e+01 1.330040316358024732e+01 1.331980082947530875e+01 1.331576051311728470e+01 1.332016541280864175e+01 1.334426070601851855e+01 1.333827980324074147e+01 1.335382426697530889e+01 1.335158275462963040e+01 1.336007330246913583e+01 1.336485291280864196e+01 1.336356192129629683e+01 1.335957417052469154e+01 1.337181520061728435e+01 1.335726610725308561e+01 1.337325327932098773e+01 1.335103684413580183e+01 1.335865403163580112e+01 1.332822241512345585e+01 1.333409770447530995e+01 1.335481770833333393e+01 1.335937644675925817e+01 1.339320987654321016e+01 1.337102527006172892e+01 1.333088300540123328e+01 1.333575617283950621e+01 1.333616560570987808e+01 1.336698350694444493e+01 1.333900848765432201e+01 1.334481047453703795e+01 1.333384837962962877e+01 1.333330102237654380e+01 1.335330150462962884e+01 1.337648196373456777e+01 1.336366367669753075e+01 1.334244502314814795e+01 1.334833960262345620e+01 1.335395109953703674e+01 1.336439332561728399e+01 1.337107735339506220e+01 1.337166184413580261e+01 1.337330198688271565e+01 1.339903983410493815e+01 1.339533661265432052e+01 1.339408179012345634e+01 1.338492621527777793e+01 1.338933979552469111e+01 1.338174141589506227e+01 1.339335021219135768e+01 1.339630401234567891e+01 1.339058352623456827e+01 1.336661458333333385e+01 1.340669704861111100e+01 1.339326774691357969e+01 1.334127845293209802e+01 1.334995515046296255e+01 1.333136911651234513e+01 1.332325086805555436e+01 1.334369550540123406e+01 1.336029562114197411e+01 1.334509693287036924e+01 1.336425588348765459e+01 1.334622154706790198e+01 1.332842110339506192e+01 1.333838782793209887e+01 1.335362654320987552e+01 1.334823688271604958e+01 1.337474826388888793e+01 1.336934027777777878e+01 1.335375434027777786e+01 1.336031250000000092e+01 1.336651909722222342e+01 1.335474392361111207e+01 1.334622010030864203e+01 1.336681568287037081e+01 1.337267650462963076e+01 1.336758728780864125e+01 1.334200569058642039e+01 1.336084249614197539e+01 1.337253809799382687e+01 1.336709683641975310e+01 1.333913676697530803e+01 1.332159191743827265e+01 1.337766975308641904e+01 1.336887779706790091e+01 1.332224392361111143e+01 1.332871817129629655e+01 1.330662085262345684e+01 1.330962239583333329e+01 1.331482253086419654e+01 1.331840904706790063e+01 1.333068431712963076e+01 1.332680893132716093e+01 1.333403260030864246e+01 1.334076774691358125e+01 1.334049430941358061e+01 1.335063126929012256e+01 1.334934751157407362e+01 1.337081211419753046e+01 1.338534191743827151e+01 1.337016010802469168e+01 1.335318287037036988e+01 1.337199363425925824e+01 1.335785686728395127e+01 1.339397521219135712e+01 1.337367717978395021e+01 1.334052613811728349e+01 1.334513310185185198e+01 1.337769145447530938e+01 1.338322145061728463e+01 1.337573206018518412e+01 1.339383005401234605e+01 1.340451967592592553e+01 1.339428964120370402e+01 1.342489969135802497e+01 1.338366657021604844e+01 1.334843846450617200e+01 1.333239631558641847e+01 1.333001446759259245e+01 1.332673177083333194e+01 1.333710985725308618e+01 1.333847077546296234e+01 1.335540171682098887e+01 1.335559510030864061e+01 1.335056134259259331e+01 1.334667582947530740e+01 1.338054639274691482e+01 1.337668981481481545e+01 1.339062500000000000e+01 1.340139949845679013e+01 1.341147183641975360e+01 1.338815779320987609e+01 1.337557291666666615e+01 1.339283709490740826e+01 1.339121045524691311e+01 1.339678530092592723e+01 1.339662229938271665e+01 1.338320746527777771e+01 1.338421344521604972e+01 1.336607445987654330e+01 1.336758632330246854e+01 1.336097511574074126e+01 1.338027102623456877e+01 1.336759211033950656e+01 1.339532262731481360e+01 1.341552517361111008e+01 1.341045235339506192e+01 1.339510561342592609e+01 1.335361593364197574e+01 1.335300877700617228e+01 1.334995804398148067e+01 1.334121961805555578e+01 1.335911265432098816e+01 1.336093846450617306e+01 1.336026572145061664e+01 1.337814043209876580e+01 1.336007619598765395e+01 1.336135320216049216e+01 1.336639178240740655e+01 1.334543788580246826e+01 1.336837528935185126e+01 1.339227961033950720e+01 1.336290846836419632e+01 1.336338300540123392e+01 1.337597608024691453e+01 1.336287567515432073e+01 1.337582802854938180e+01 1.337672309027777828e+01 1.335939718364197581e+01 1.336132089120370381e+01 1.335317033179012292e+01 1.339101080246913611e+01 1.340631028163580218e+01 1.339711226851851933e+01 1.336333236882716058e+01 1.335684124228395042e+01 1.334494020061728392e+01 1.330777777777777793e+01 1.328966242283950550e+01 1.330217303240740634e+01 1.332113474151234556e+01 1.332697820216049323e+01 1.332571952160493822e+01 1.330206934799382701e+01 1.331246141975308639e+01 1.333629967206790035e+01 1.333353443287037088e+01 1.332572627314814717e+01 1.331240162037036967e+01 1.334975742669753096e+01 1.333816116898148074e+01 1.334095534336419853e+01 1.335101658950617320e+01 1.334102719907407497e+01 1.334132619598765501e+01 1.333464891975308753e+01 1.334677758487654486e+01 1.336658179012345649e+01 1.335671006944444450e+01 1.336245273919753096e+01 1.333427372685185119e+01 1.333657648533950635e+01 1.332060281635802390e+01 1.335143229166666679e+01 1.331663146219135818e+01 1.333348958333333378e+01 1.335919222608024803e+01 1.333951967592592602e+01 1.329816743827160508e+01 1.328674093364197439e+01 1.330675009645061735e+01 1.329518952546296262e+01 1.329707272376543159e+01 1.330610194830246940e+01 1.332123505015432130e+01 1.331044270833333343e+01 1.332081645447530960e+01 1.331883921682098659e+01 1.330806616512345641e+01 1.331090663580246947e+01 1.328752652391975353e+01 1.331096257716049358e+01 1.331905719521604858e+01 1.332297791280864097e+01 1.332992380401234556e+01 1.333288869598765558e+01 1.332942949459876480e+01 1.330040075231481467e+01 1.330818865740740797e+01 1.329282841435185247e+01 1.330915798611111178e+01 1.335594039351851769e+01 1.335591145833333293e+01 1.334675250771604915e+01
