2.199787369791666833e+02 2.200589520640432113e+02 2.203345539158950714e+02 2.203991796875000091e+02 2.206864327739197336e+02 2.208653809799382657e+02 2.209695047260802312e+02 2.210254788773148107e+02 2.210598316936728338e+02 2.210954046103395001e+02 2.211445862268518567e+02 2.211990639467592814e+02 2.212409654706790150e+02 2.212801948302468986e+02 2.213138348765432113e+02 2.213468084490740750e+02 2.213741169945987792e+02 2.213944179205246883e+02 2.214394309413580402e+02 2.214780840084876559e+02 2.215262504822530900e+02 2.215466710069444503e+02 2.214953901427469134e+02 2.213933482831789945e+02 2.212912017746913591e+02 2.212243364197530866e+02 2.211836400462962899e+02 2.211737581983024654e+02 2.211576519097222331e+02 2.211854798418210066e+02 2.211788069058641781e+02 2.212499860146604931e+02 2.212655169753086284e+02 2.212576663773148198e+02 2.212664096257715869e+02 2.212947415123456665e+02 2.213273485725308660e+02 2.213661988811728349e+02 2.213984312307098605e+02 2.214314409722222194e+02 2.215482581018518431e+02 2.215305184220678996e+02 2.214186873070987644e+02 2.213068619791666833e+02 2.212209186921296293e+02 2.211818595679012276e+02 2.214492361111111052e+02 2.214755198688271776e+02 2.214346633873456938e+02 2.213943176118827125e+02 2.213785677083333212e+02 2.213831235532407504e+02 2.214065190972222297e+02 2.214084534143518681e+02 2.214342703510802721e+02 2.214504673032407425e+02 2.214452372685185253e+02 2.214565046296296202e+02 2.214327975501543335e+02 2.213063990162037271e+02 2.212768904320987531e+02 2.212678920717592348e+02 2.211772728587963002e+02 2.212095611496913534e+02 2.212579147376543176e+02 2.212946672453703627e+02 2.213358936149691374e+02 2.213622526041666845e+02 2.213921503665123396e+02 2.214255449459876388e+02 2.214541039737654273e+02 2.214960836226852052e+02 2.215247559799382771e+02 2.214854952739197529e+02 2.213922198109567887e+02 2.212806163194444196e+02 2.211993190586419757e+02 2.211489867862654251e+02 2.211147067901234493e+02 2.210846050347222160e+02 2.210747010030864317e+02 2.210744873649691442e+02 2.210534360532407447e+02 2.210467134452160565e+02 2.210338773148148164e+02 2.210321117862654319e+02 2.210457581018518738e+02 2.210628366126543369e+02 2.210980107060185276e+02 2.211229894868827159e+02 2.211620558449074281e+02 2.212061776620370495e+02 2.212446103395061812e+02 2.212553009259259227e+02 2.212968995949073872e+02 2.213380676118827068e+02 2.213878679591049377e+02 2.214297024498456778e+02 2.214600506365740671e+02 2.214970216049382543e+02 2.215294593942901145e+02 2.215272458526234516e+02 2.214547183641975323e+02 2.213565205439814747e+02 2.212661178626543119e+02 2.211941247106481399e+02 2.211410951967592666e+02 2.210837461419752970e+02 2.210609153163580345e+02 2.210636009837962774e+02 2.210543412422839538e+02 2.210507354359567955e+02 2.210589964313271594e+02 2.210828824266975516e+02 2.211296532600308637e+02 2.211864216820987679e+02 2.212312909915123669e+02 2.212738874421296202e+02 2.213058386381172795e+02 2.213451393711419826e+02 2.213889207175925833e+02 2.214457093942901338e+02 2.215051205632716176e+02 2.215533492476851904e+02 2.215367862654320845e+02 2.215947501929012162e+02 2.216461955054012378e+02 2.216976702353395012e+02 2.217380314429012174e+02 2.217015113811728497e+02 2.215959283371913671e+02 2.214854817708333314e+02 2.213992216435185014e+02 2.213552309992283824e+02 2.213216864390432193e+02 2.213020732060185196e+02 2.212917635995370347e+02 2.212924614197530957e+02 2.212912268518518601e+02 2.212837480709876559e+02 2.212772863618827159e+02 2.212844241898148141e+02 2.212791579861111302e+02 2.212812905092592644e+02 2.213053081597222160e+02 2.213385088734567887e+02 2.213639149305555804e+02 2.213929629629629687e+02 2.214256891396604772e+02 2.214388478973765473e+02 2.214496624228395092e+02 2.214809707754629642e+02 2.215275665509259397e+02 2.215758801118827250e+02 2.216303911072530752e+02 2.216707161458333246e+02 2.217414901620370529e+02 2.217945346257716039e+02 2.217879190779320879e+02 2.216859206211419746e+02 2.215434669174382805e+02 2.214193258101851995e+02 2.213133053626543187e+02 2.212251914544752935e+02 2.211450925925925901e+02 2.210864101080246940e+02 2.210439448302469145e+02 2.210050163966049297e+02 2.209527044753086500e+02 2.209210734953703650e+02 2.209040543016975278e+02 2.208870486111111120e+02 2.208794024884259386e+02 2.208929639274691397e+02 2.209266753472222433e+02 2.209601639660493788e+02 2.210004118441358116e+02 2.210493373842592462e+02 2.210983714313271662e+02 2.211581780478395274e+02 2.212164250578703673e+02 2.212875583526234493e+02 2.213455401234567717e+02 2.214014800347222263e+02 2.214740060763888891e+02 2.215427136381172772e+02 2.215979407793209646e+02 2.216436535493827193e+02 2.216319545717592518e+02 2.215520052083333269e+02 2.214671412037037044e+02 2.214117732445987770e+02 2.213700366512345852e+02 2.213378568672839322e+02 2.213363228202160542e+02 2.213308236882716074e+02 2.213293933256172750e+02 2.213229205246913693e+02 2.213111125578703593e+02 2.213172690007716028e+02 2.213192534722222433e+02 2.213490142746913705e+02 2.213733212770061698e+02 2.214100178433641872e+02 2.214590422453703695e+02 2.215153226273148164e+02 2.215626919367284131e+02 2.216220071373456619e+02 2.216738006365740716e+02 2.217196522955246962e+02 2.217761950231481478e+02 2.218251895254629460e+02 2.218757093942901122e+02 2.219318586033950567e+02 2.219735296103395115e+02 2.219822212577160485e+02 2.219101996527777771e+02 2.216068894675925947e+02 2.215997439236111290e+02 2.215760151427469111e+02 2.215717819251543119e+02 2.215788155864197506e+02 2.215925790895061596e+02 2.216102107445987883e+02 2.216279552469135865e+02 2.216408015046296214e+02 2.216557122878086545e+02 2.216587234760802403e+02 2.216820707947530877e+02 2.217017182677469123e+02 2.217412215470678802e+02 2.217784654706790093e+02 2.218231597222222433e+02 2.218692153742283892e+02 2.219269960455247030e+02 2.219817115162037169e+02 2.220303901427469100e+02 2.220796151620370438e+02 2.221293885030864317e+02 2.221536554783950521e+02 2.220705087770061823e+02 2.219612606095679155e+02 2.218773828125000023e+02 2.218356563464506053e+02 2.217978419174382907e+02 2.217662673611111188e+02 2.217546387924382714e+02 2.217499802276234391e+02 2.217772627314814997e+02 2.217839535108024904e+02 2.217842187499999795e+02 2.217884727044752822e+02 2.218016406250000045e+02 2.218174464699074235e+02 2.218482108410493936e+02 2.218811795910493743e+02 2.219335450424382543e+02 2.219751056134259386e+02 2.220107937885802301e+02 2.220412707368827228e+02 2.220683839699073872e+02 2.221032663001543312e+02 2.221554557291666754e+02 2.221877136381172875e+02 2.222075569058642088e+02 2.221465557484567910e+02 2.220263787615740796e+02 2.218967076581790252e+02 2.218050969328703843e+02 2.217444651813271719e+02 2.216867563657407345e+02 2.216452975501543108e+02 2.216270674189814827e+02 2.216241661844135820e+02 2.216085006751543176e+02 2.215966218171296305e+02 2.215836844135802721e+02 2.215798485725308637e+02 2.216244810956790161e+02 2.216630063657407277e+02 2.217029701967592814e+02 2.217374773341049377e+02 2.217763874421296464e+02 2.218124184992284142e+02 2.218472612847222081e+02 2.218779060570987838e+02 2.219194950810185105e+02 2.219502565586419678e+02 2.219944999035493822e+02 2.220323124035493834e+02 2.220697154706790002e+02 2.220689033564814849e+02 2.219893716242283972e+02 2.218542385223765336e+02 2.217234683641975153e+02 2.216255160108024711e+02 2.215705280671296293e+02 2.215280304783950669e+02 2.214794053819444457e+02 2.214660599922839594e+02 2.214557860725308558e+02 2.214405724344135820e+02 2.214233164544752981e+02 2.214151851851851802e+02 2.214245698302469236e+02 2.214449831211419735e+02 2.214797656249999989e+02 2.214993127893518476e+02 2.215413252314814940e+02 2.216586005015432193e+02 2.217004726080246826e+02 2.217410759066357855e+02 2.217776528742284086e+02 2.218155512152777931e+02 2.218567390046296453e+02 2.218948529128086307e+02 2.219341107253086420e+02 2.219333371913580493e+02 2.218424754050925856e+02 2.217029817708333326e+02 2.215783116319444446e+02 2.215035971257715914e+02 2.214477893518518385e+02 2.214124233217592348e+02 2.213934321952160360e+02 2.213987056327160587e+02 2.213955541087962899e+02 2.213790596064814622e+02 2.213659389467592575e+02 2.213618267746913659e+02 2.213981442901234402e+02 2.214266685956790184e+02 2.214567066936728281e+02 2.214921846064814872e+02 2.215362837577160633e+02 2.215910850694444605e+02 2.216428814621913546e+02 2.216955512152777885e+02 2.217342819251543062e+02 2.217663835841049433e+02 2.218055613425925969e+02 2.218505155285493800e+02 2.218117491319444525e+02 2.216814829282407402e+02 2.215450178433641781e+02 2.214369135802469089e+02 2.213683641975308660e+02 2.213120712770061687e+02 2.212674918016975312e+02 2.212512138310185321e+02 2.212431442901234391e+02 2.212358068094135888e+02 2.212222776813271707e+02 2.212234162808641997e+02 2.212145351080246769e+02 2.212304832175925924e+02 2.212585474537037271e+02 2.212951104359567864e+02 2.213378322723765450e+02 2.213805579668209873e+02 2.214204711612654251e+02 2.214655193865740728e+02 2.215235720486111290e+02 2.215797892554012378e+02 2.216269314236110972e+02 2.216866806520061743e+02 2.217367602237654296e+02 2.217933217592592712e+02 2.218557016782407345e+02 2.218999532214506303e+02 2.217695163001543222e+02 2.217014539930555657e+02 2.215618306327160383e+02 2.214575004822530957e+02 2.213803554205246940e+02 2.213156182484567864e+02 2.212572415123456722e+02 2.212212307098765507e+02 2.211993846450617411e+02 2.212046320408950635e+02 2.211844246720679052e+02 2.211737919560185048e+02 2.211645081018518511e+02 2.211792062114197392e+02 2.212037065972222081e+02 2.212298963155864158e+02 2.212693542631172932e+02 2.213141141010802357e+02 2.213668865740740728e+02 2.214157436342592575e+02 2.214703520447530707e+02 2.215215427276234550e+02 2.215687856867284040e+02 2.216206973379629517e+02 2.216823350694444343e+02 2.217376099537036964e+02 2.217903091242283722e+02 2.218509582368826898e+02 2.219132402584876331e+02 2.219547477816358025e+02 2.219813112461419564e+02 2.217348234953703638e+02 2.216740475501543131e+02 2.215772140239197654e+02 2.214902854938271446e+02 2.214399141589506144e+02 2.213991030092592496e+02 2.213633989197530809e+02 2.213473307291666572e+02 2.213579648919753140e+02 2.213444690393518499e+02 2.213377642746913807e+02 2.213407523148148357e+02 2.213592703510802551e+02 2.213770476466049502e+02 2.214006785300925912e+02 2.214509119405864226e+02 2.215024107831790161e+02 2.215502584876543324e+02 2.215991382137345624e+02 2.216411241319444514e+02 2.217255989583333360e+02 2.217768402777777794e+02 2.218389134837962899e+02 2.218840253665123612e+02 2.219377666859568023e+02 2.219925858410493902e+02 2.220538869598765359e+02 2.220993127893518420e+02 2.221029320987654216e+02 2.220253105709876422e+02 2.217036289544753060e+02 2.216743253279321095e+02 2.216332658179012469e+02 2.216147911844135763e+02 2.215999426118827103e+02 2.216090972222222319e+02 2.216172839506172636e+02 2.216152213541666640e+02 2.216003607253086329e+02 2.215956606867283938e+02 2.215871050347222138e+02 2.215970423418209805e+02 2.216178481867283949e+02 2.216440851658950635e+02 2.216858974729938154e+02 2.217333179012345852e+02 2.217796156442901179e+02 2.218162350501543187e+02 2.218648982445987770e+02 2.219060508294753049e+02 2.219494830246913750e+02 2.220011332947530889e+02 2.220478612075617093e+02 2.220979277584876570e+02 2.221496981095679075e+02 2.222007889660493731e+02 2.222591459297839549e+02 2.222820090663580288e+02 2.222194560185185424e+02 2.220610209297839504e+02 2.218893942901234482e+02 2.216871320408950510e+02 2.216875438850308626e+02 2.216582937885802664e+02 2.216306250000000091e+02 2.215994883294752924e+02 2.215974922839506007e+02 2.215831722608024847e+02 2.215682127700617343e+02 2.215526224922839731e+02 2.215383950617284086e+02 2.215516025270061959e+02 2.215870326967592518e+02 2.216078173225308774e+02 2.216506915509259272e+02 2.216964293981481262e+02 2.217398447145061766e+02 2.217793716242283892e+02 2.218233622685185367e+02 2.218750086805555384e+02 2.219149266975308592e+02 2.219690866126543369e+02 2.220150559413580140e+02 2.220562196180555645e+02 2.221071320408950669e+02 2.221602575231481467e+02 2.222048268711419610e+02 2.222166912615740557e+02 2.221404827353395035e+02 2.219884090470679041e+02 2.218340190972222388e+02 2.217200607638888812e+02 2.215960652970678950e+02 2.215975062692901076e+02 2.215828906250000045e+02 2.215754711612654262e+02 2.215723606288580072e+02 2.215594015239197745e+02 2.215352874228395024e+02 2.215240060763889005e+02 2.215230729166666777e+02 2.215318335262345784e+02 2.215568320794752992e+02 2.215999807098765473e+02 2.216314549575617150e+02 2.216710812114197324e+02 2.217173620756172738e+02 2.217603843557099026e+02 2.217995953896604817e+02 2.218460701195987781e+02 2.218895249807098651e+02 2.219355261381172681e+02 2.220385546875000102e+02 2.220977194251543381e+02 2.221399098186728338e+02 2.221958183834876479e+02 2.222252102623456835e+02 2.221660329861111052e+02 2.220294082754629414e+02 2.218765427276234448e+02 2.217731505594135797e+02 2.217112702546296248e+02 2.216517047646605079e+02 2.216721069637345636e+02 2.216850313464506144e+02 2.216927811535493902e+02 2.216878018904320982e+02 2.216817616705247076e+02 2.216705237268518545e+02 2.216733883101851745e+02 2.216978163580246814e+02 2.217217645640432124e+02 2.217607793209876377e+02 2.218121677276234607e+02 2.218638734567901167e+02 2.219165610532407413e+02 2.219675347222222115e+02 2.220188170331790047e+02 2.220685575810184957e+02 2.221207219328703673e+02 2.221700115740740671e+02 2.222173987268518545e+02 2.222647892554012117e+02 2.223236680169753186e+02 2.223743065200617366e+02 2.224328313078703729e+02 2.224679171489197529e+02 2.224145963541666617e+02 2.222770741705246849e+02 2.221354730902777703e+02 2.220366690779320891e+02 2.219746498842592644e+02 2.219531814236111131e+02 2.219630439814814622e+02 2.220013059413580265e+02 2.220195490933641906e+02 2.220341160300925765e+02 2.220233492476851893e+02 2.220132118055555566e+02 2.220241758294752970e+02 2.220476837384259454e+02 2.220869367283950453e+02 2.221303747106481410e+02 2.221699049961419803e+02 2.222163112461419701e+02 2.222638826195987747e+02 2.223093267746913568e+02 2.223636810378086466e+02 2.224010064621913614e+02 2.224410681905864067e+02 2.224880946180555554e+02 2.225369651813271616e+02 2.225898914930555748e+02 2.226364327739197506e+02 2.226514043209876377e+02 2.225865248842592621e+02 2.224592992862654341e+02 2.223276929012345704e+02 2.222482272376543335e+02 2.222112065972222297e+02 2.221912948495370586e+02 2.221977044753086545e+02 2.222214467592592655e+02 2.222379494598765461e+02 2.221972501929012367e+02 2.222214525462963195e+02 2.222364578510802460e+02 2.222551523919753151e+02 2.222937736304012333e+02 2.223397853973765450e+02 2.223835074266975198e+02 2.224394603587963104e+02 2.224896648341049286e+02 2.225363647762345636e+02 2.225796870177469202e+02 2.226206881751543278e+02 2.226568079668209919e+02 2.227119912229938450e+02 2.227601413001543165e+02 2.228045828510802551e+02 2.228420056905864328e+02 2.228207397762345749e+02 2.226980787037036862e+02 2.224037938850308649e+02 2.223106076388888823e+02 2.222563541666666538e+02 2.222177917631173045e+02 2.221958381558642088e+02 2.221904374035493674e+02 2.221845134066358014e+02 2.221750482253086432e+02 2.221587962962962877e+02 2.221555160108024722e+02 2.221638503086419973e+02 2.221727517361111097e+02 2.222292727623456869e+02 2.222874204282407504e+02 2.223426938657407277e+02 2.223990996334876797e+02 2.224500226658950623e+02 2.224961265432098969e+02 2.225335353973765393e+02 2.225666468942901304e+02 2.226103139467592769e+02 2.226566965663580220e+02 2.227083608217592712e+02 2.227433150077160633e+02 2.227096788194444343e+02 2.225653163580246883e+02 2.223828423996913557e+02 2.222257286844135820e+02 2.221230507330247121e+02 2.220561222029321016e+02 2.219955859375000102e+02 2.219543730709876570e+02 2.219395669367283972e+02 2.219116623263888926e+02 2.218916743827160474e+02 2.218631997492284142e+02 2.218616497878086307e+02 2.218746556712962956e+02 2.218999213927469043e+02 2.219306206597222229e+02 2.219782320601851779e+02 2.220215046296296464e+02 2.220673273533950578e+02 2.221088946759259386e+02 2.221614096257715971e+02 2.221969169560185264e+02 2.222534813850308524e+02 2.222922661072530843e+02 2.223436612654321038e+02 2.223960040509259386e+02 2.224502613811728224e+02 2.224889216820987770e+02 2.224427189429012230e+02 2.222874676890432113e+02 2.220914260223765382e+02 2.219545013503086466e+02 2.218689332561728236e+02 2.217847058256172943e+02 2.217165562307098696e+02 2.216768561921296339e+02 2.216616874035493936e+02 2.216577662037037157e+02 2.216246691743827171e+02 2.216120326967592575e+02 2.216016806520061664e+02 2.216044569830246758e+02 2.216408478009259397e+02 2.216759196566358128e+02 2.217239284336419871e+02 2.217720394483024791e+02 2.218307195216049479e+02 2.218816724537036862e+02 2.219326432291666720e+02 2.220025139853395046e+02 2.220537938850308421e+02 2.221067187499999989e+02 2.221570597029320879e+02 2.222228641010802619e+02 2.222874127121913546e+02 2.223473842592592575e+02 2.223690890239197699e+02 2.222781153549382793e+02 2.221097304205246985e+02 2.219463985339505996e+02 2.218433805941357946e+02 2.217790195794753174e+02 2.217226273148148152e+02 2.216903896604938211e+02 2.216733762538580379e+02 2.216711588541666629e+02 2.216477551118827307e+02 2.216225834297839583e+02 2.216374276620370267e+02 2.216611038773148152e+02 2.216919362461419780e+02 2.217313874421296305e+02 2.217702281057098617e+02 2.218247694830246814e+02 2.218713628472222297e+02 2.219221243248456688e+02 2.219697636959876377e+02 2.220136935763889028e+02 2.220670490933642043e+02 2.220881495949074065e+02 2.221436824845679041e+02 2.222151986882716130e+02 2.222610093557098878e+02 2.222297690007715971e+02 2.221063676697530695e+02 2.219272781635802403e+02 2.217814062500000034e+02 2.216785657793209907e+02 2.216126466049382771e+02 2.215848283179012412e+02 2.215803650655864203e+02 2.215833757716049490e+02 2.215716521990740659e+02 2.215398808834876547e+02 2.215183969907407402e+02 2.215062692901234698e+02 2.215219362461419621e+02 2.215541295331790081e+02 2.215922000385802448e+02 2.216403988233024904e+02 2.216832016782407493e+02 2.217445182291666583e+02 2.217927604166666526e+02 2.218443089313271628e+02 2.218934577546296509e+02 2.219522284915123578e+02 2.220071214313271355e+02 2.220674450231481671e+02 2.221230632716049342e+02 2.221737528935185253e+02 2.222182243441357912e+02 2.221984013310185162e+02 2.220553428819444548e+02 2.218633043981481308e+02 2.216854851466049183e+02 2.215591358024691431e+02 2.214825525655864169e+02 2.214200120563271525e+02 2.213660416666666890e+02 2.213444921875000091e+02 2.213246595293209964e+02 2.212977358217592609e+02 2.212828091242284074e+02 2.212756351273148141e+02 2.212823365162036851e+02 2.213037852044753038e+02 2.213332031250000114e+02 2.213891936728394967e+02 2.214336188271604726e+02 2.214827049575617366e+02 2.215346571180555486e+02 2.215805902777777874e+02 2.216259944058641906e+02 2.216805579668209703e+02 2.217378906250000057e+02 2.218041811342592666e+02 2.218677854938271707e+02 2.219296031057098730e+02 2.219926157407407459e+02 2.220500993441358162e+02 2.220587075617283972e+02 2.217463435570987826e+02 2.216725443672839617e+02 2.215394738618827262e+02 2.214501470871913398e+02 2.213848837770061664e+02 2.213272521219135740e+02 2.212772352430555429e+02 2.212561583719135854e+02 2.212430753279321038e+02 2.212329619984568012e+02 2.212185218942901201e+02 2.212152985146605033e+02 2.212159403935185367e+02 2.212466198881172943e+02 2.212854103973765518e+02 2.213399537037036851e+02 2.213945037615740716e+02 2.215015171682098867e+02 2.215632523148148039e+02 2.216246228780864271e+02 2.216891869212962831e+02 2.217488527199074042e+02 2.218118995949074019e+02 2.218822603202160622e+02 2.219448591820987531e+02 2.219994584297839424e+02 2.220617959104938279e+02 2.221164723186728338e+02 2.220969357638888653e+02 2.219673717206790116e+02 2.215998466435185321e+02 2.215728409529321254e+02 2.215333641975308581e+02 2.215100327932098878e+02 2.214879128086419655e+02 2.214945847800925947e+02 2.214958757716049433e+02 2.214910426311728600e+02 2.214769748263888971e+02 2.214502811535493834e+02 2.214534919945987781e+02 2.214712596450617355e+02 2.215156360918209941e+02 2.215542385223765507e+02 2.215887683256172807e+02 2.216451890432098821e+02 2.216905984760802255e+02 2.217358415316357991e+02 2.217824320023148061e+02 2.218340663580246712e+02 2.218802319637345590e+02 2.219285228587962990e+02 2.219721764081790241e+02 2.220336921296296282e+02 2.220990393518518431e+02 2.221541820987654319e+02 2.221409268904320982e+02 2.220185016396605135e+02 2.218403129822530957e+02 2.216888623649691397e+02 2.215841685956789888e+02 2.214550872878086238e+02 2.214759413580246985e+02 2.214827951388888891e+02 2.214977309992283949e+02 2.214958434606481319e+02 2.214786337770061664e+02 2.214549638310185173e+02 2.214571706211419553e+02 2.214635209297839538e+02 2.214907851080246814e+02 2.215368682484568126e+02 2.215683434606481512e+02 2.216160151427469032e+02 2.216603023726851802e+02 2.217034114583333348e+02 2.217460681905864135e+02 2.217852647569444571e+02 2.218226938657407459e+02 2.218694492669753231e+02 2.219123948688271355e+02 2.219697077546296100e+02 2.220165798611110972e+02 2.220691792052469111e+02 2.220521696566358116e+02 2.219382716049382793e+02 2.217518513695987679e+02 2.215721995563271776e+02 2.214490301890432136e+02 2.213763445216049490e+02 2.213024869791666731e+02 2.212483367091049331e+02 2.212209760802469134e+02 2.212564337384259261e+02 2.212595601851851939e+02 2.212545201581790195e+02 2.212530700231481262e+02 2.212734037422839322e+02 2.212995900848765416e+02 2.213416739004629505e+02 2.213896985918210021e+02 2.214349980709876604e+02 2.214807455632715971e+02 2.215372318672839640e+02 2.215824131944444559e+02 2.216372998649691226e+02 2.216913064236111097e+02 2.217444184027777681e+02 2.218003515624999977e+02 2.219251316550925992e+02 2.219976297260802482e+02 2.220519671103395183e+02 2.220293349729938086e+02 2.218921079282407334e+02 2.217233646797839413e+02 2.215874701003086500e+02 2.215021059992284052e+02 2.214570225694444616e+02 2.214097212577160576e+02 2.213919878472222251e+02 2.213851364776234618e+02 2.213791054205246951e+02 2.213488416280864328e+02 2.213800231481481262e+02 2.214015075231481262e+02 2.214201808449074065e+02 2.214583400848765393e+02 2.214968595679012253e+02 2.215489105902777567e+02 2.216043750000000045e+02 2.216513305362654478e+02 2.216986294367283961e+02 2.217405078124999989e+02 2.217889289158950703e+02 2.218409669174382657e+02 2.218991290509259500e+02 2.219524802276234539e+02 2.220114781057098696e+02 2.220708805941358150e+02 2.221210971257715983e+02 2.221101504629629630e+02 2.220015639467592621e+02 2.218673857060184957e+02
4.445833333333333304e-01 4.515745563271604812e-01 5.425467785493827133e-01 7.330068479938272041e-01 9.256785300925925997e-01 1.024399594907407396e+00 1.074316647376543088e+00 1.091678722993827177e+00 1.096837384259259141e+00 1.097132040895061778e+00 1.109816743827160668e+00 1.125049189814814721e+00 1.135640914351851771e+00 1.149378375771604954e+00 1.158027102623456761e+00 1.168483314043209820e+00 1.183990162037036997e+00 1.192330729166666492e+00 1.211846064814814827e+00 1.233147183641975175e+00 1.256852816358024816e+00 1.273072916666666776e+00 1.254685088734567744e+00 1.197700135030864255e+00 1.135962094907407405e+00 1.086921296296296191e+00 1.056099537037037184e+00 1.039819155092592595e+00 1.022747878086419648e+00 1.029562596450617207e+00 1.023012152777777795e+00 9.183965084876543061e-01 8.948924575617284161e-01 8.811091820987654311e-01 9.001798804012345334e-01 9.316560570987654222e-01 9.609476273148147563e-01 9.875896990740740122e-01 1.006977719907407476e+00 1.026521026234567868e+00 1.382607542438271553e+00 1.382386670524691441e+00 1.280939911265432052e+00 1.137721354166666643e+00 9.751861496913580840e-01 8.107272376543209758e-01 1.004292534722222241e+00 1.055887345679012324e+00 1.065087770061728500e+00 1.067102623456790189e+00 1.077466242283950493e+00 1.099034529320987552e+00 1.126524884259259229e+00 1.160949074074074217e+00 1.214495563271605016e+00 1.264095293209876569e+00 1.313511284722222117e+00 1.369555844907407449e+00 1.402801408179012332e+00 1.302704957561728216e+00 1.273209394290123475e+00 1.263548418209876401e+00 1.256003568672839465e+00 1.230594135802469236e+00 1.256333912037037148e+00 1.289994695216049481e+00 1.319700520833333224e+00 1.354370659722222259e+00 1.380974633487654257e+00 1.410157696759259283e+00 1.447045235339506020e+00 1.482352912808642120e+00 1.500120081018518459e+00 1.486423128858024745e+00 1.428438946759259309e+00 1.363034818672839377e+00 1.310570987654321007e+00 1.274839891975308559e+00 1.248327064043209811e+00 1.213081597222222197e+00 1.199496527777777821e+00 1.203470775462962772e+00 1.183618344907407360e+00 1.162788869598765373e+00 1.153577835648148087e+00 1.146811824845678895e+00 1.145950520833333375e+00 1.153583140432098864e+00 1.160965470679012457e+00 1.180831404320987543e+00 1.199336419753086469e+00 1.216591917438271553e+00 1.236588541666666652e+00 1.316802179783950644e+00 1.281447241512345681e+00 1.310409432870370372e+00 1.346059992283950679e+00 1.385484664351851913e+00 1.417811053240740859e+00 1.446868730709876427e+00 1.482477334104938205e+00 1.486720679012345725e+00 1.450038097993827213e+00 1.385249807098765329e+00 1.327839506172839412e+00 1.281309799382716053e+00 1.239200424382716159e+00 1.203570119598765364e+00 1.186054687499999982e+00 1.179282889660493883e+00 1.164988425925925997e+00 1.161976273148148220e+00 1.162464795524691397e+00 1.168311149691358075e+00 1.183712384259259176e+00 1.202709780092592551e+00 1.226618923611111134e+00 1.249198977623456663e+00 1.262841435185185324e+00 1.285645736882715884e+00 1.312540991512345601e+00 1.345719521604938240e+00 1.375850212191358057e+00 1.413353105709876489e+00 1.541300636574074012e+00 1.515016878858024496e+00 1.549810474537036908e+00 1.595652970679012350e+00 1.623814621913580281e+00 1.607350019290123555e+00 1.541619405864197656e+00 1.470282118055555420e+00 1.412511091820987552e+00 1.376714891975308719e+00 1.345513599537036864e+00 1.321142457561728323e+00 1.306573109567901181e+00 1.294198495370370461e+00 1.286438078703703747e+00 1.278024209104938302e+00 1.266983989197530969e+00 1.253245081018518503e+00 1.247073206018518565e+00 1.245114293981481435e+00 1.256087480709876525e+00 1.267951388888888919e+00 1.278882137345678904e+00 1.289811921296296404e+00 1.304054783950617136e+00 1.313324652777777768e+00 1.321290509259259283e+00 1.337791763117283983e+00 1.362619116512345796e+00 1.388057484567901234e+00 1.427882908950617313e+00 1.574541859567901270e+00 1.560464409722222223e+00 1.583276909722222348e+00 1.581832079475308683e+00 1.530655864197530969e+00 1.445714699074074128e+00 1.360816936728395099e+00 1.280161072530864308e+00 1.219898244598765391e+00 1.158246045524691237e+00 1.106139564043209900e+00 1.068143325617283868e+00 1.034102527006173000e+00 9.971855709876542573e-01 9.664086612654321229e-01 9.512620563271605434e-01 9.289168595679011542e-01 9.112649498456789621e-01 9.133212770061729380e-01 9.175327932098765737e-01 9.289139660493827000e-01 9.418711419753086345e-01 9.532518325617282962e-01 9.772583912037038356e-01 1.004414544753086336e+00 1.024840856481481488e+00 1.060434510030864308e+00 1.089706307870370372e+00 1.122887249228395001e+00 1.161509934413580192e+00 1.196851851851851833e+00 1.374967206790123520e+00 1.331103395061728367e+00 1.330043885030864237e+00 1.274135802469135825e+00 1.223953993055555411e+00 1.181461709104938196e+00 1.149125192901234715e+00 1.129120370370370496e+00 1.116434220679012324e+00 1.108771701388888919e+00 1.104450713734567824e+00 1.093814621913580254e+00 1.080608121141975353e+00 1.078810763888888857e+00 1.082092978395061689e+00 1.086070601851851780e+00 1.095433063271604945e+00 1.105861786265432078e+00 1.128777488425926068e+00 1.158913001543209864e+00 1.179533661265432132e+00 1.214307966820987517e+00 1.245300925925925783e+00 1.271574556327160543e+00 1.303543113425925881e+00 1.342180266203703676e+00 1.380549768518518627e+00 1.422324459876543212e+00 1.450715181327160597e+00 1.473813175154320865e+00 1.448891782407407236e+00 1.406926118827160455e+00 1.314281442901234609e+00 1.275180362654320998e+00 1.255691068672839528e+00 1.251855227623456912e+00 1.253696469907407351e+00 1.264644579475308728e+00 1.274166666666666670e+00 1.276317515432098704e+00 1.279349440586419639e+00 1.273825231481481524e+00 1.278092689043209829e+00 1.282294560185185173e+00 1.304841338734567868e+00 1.332319637345678931e+00 1.365866608796296289e+00 1.396104359567901243e+00 1.430185667438271579e+00 1.466649787808641969e+00 1.499715952932098695e+00 1.544855806327160463e+00 1.585011091820987650e+00 1.636641107253086425e+00 1.582323495370370425e+00 1.511121238425925828e+00 1.447636959876543283e+00 1.413739872685185084e+00 1.387093460648147980e+00 1.362025462962962896e+00 1.344419849537036971e+00 1.392946566358024496e+00 1.327315297067901412e+00 1.313604841820987579e+00 1.303222897376543177e+00 1.299467592592592480e+00 1.303705150462963092e+00 1.315888792438271615e+00 1.331813753858024585e+00 1.356102430555555571e+00 1.390798611111111027e+00 1.413983410493827364e+00 1.438094135802469031e+00 1.469857253086419790e+00 1.498275945216049232e+00 1.524858699845679011e+00 1.560431134259259167e+00 1.592193287037036997e+00 1.616215277777777848e+00 1.579335455246913655e+00 1.503424961419753236e+00 1.414578993055555456e+00 1.346054205246913549e+00 1.302832754629629664e+00 1.264893422067901341e+00 1.225825617283950564e+00 1.208221450617283921e+00 1.199159915123456877e+00 1.186890432098765435e+00 1.173714795524691379e+00 1.157104552469135683e+00 1.149817708333333188e+00 1.194204282407407280e+00 1.136768422067901296e+00 1.142735339506172787e+00 1.158960262345678949e+00 1.185268132716049472e+00 1.206128472222222303e+00 1.226504147376543008e+00 1.255190007716049383e+00 1.281265432098765311e+00 1.314173900462962896e+00 1.347611400462962905e+00 1.381942515432098784e+00 1.411590470679012332e+00 1.424984567901234511e+00 1.376723090277777839e+00 1.299485435956790225e+00 1.221383101851851949e+00 1.163496334876543248e+00 1.126742862654320998e+00 1.093966531635802264e+00 1.063597125771604812e+00 1.047882908950617420e+00 1.033649209104938294e+00 1.020019290123456823e+00 1.002595003858024691e+00 9.909625771604937405e-01 9.906467013888888840e-01 9.848596643518519045e-01 9.993301504629629184e-01 1.003982445987654293e+00 1.022970679012345840e+00 1.127221739969135772e+00 1.069129533179012492e+00 1.074232253086419675e+00 1.094587673611111089e+00 1.120941358024691192e+00 1.152388599537037095e+00 1.176274594907407600e+00 1.207266589506172716e+00 1.212620081018518592e+00 1.157857349537037228e+00 1.079506172839506117e+00 1.008301022376543177e+00 9.615808256172838631e-01 9.238025655864197105e-01 9.054123263888889106e-01 8.918190586419753041e-01 8.791319444444444242e-01 8.710257523148148273e-01 8.548355516975307822e-01 8.439988425925925020e-01 8.350588348765433100e-01 8.375217013888889284e-01 8.502073688271605256e-01 8.646720679012345201e-01 8.771542245370370638e-01 8.959201388888888840e-01 9.201003086419753396e-01 9.435136959876543328e-01 9.692578125000000933e-01 9.972935956790123235e-01 1.161444347993827231e+00 1.105646701388888875e+00 1.116660397376543212e+00 1.099310860339506091e+00 1.033325135030864317e+00 9.529234182098765826e-01 8.897680362654321051e-01 8.473316936728394477e-01 8.077637924382715662e-01 7.811038773148147873e-01 7.649836033950616621e-01 7.543783757716049365e-01 7.478144290123457383e-01 7.360595100308642280e-01 7.343938078703704520e-01 7.218692129629629139e-01 7.187996720679012963e-01 7.290244020061728003e-01 7.400458140432099041e-01 7.519560185185184542e-01 7.674850501543210024e-01 7.846604938271604102e-01 8.060638503086419160e-01 8.297092013888889284e-01 8.515600887345678993e-01 8.759022955246913433e-01 9.044786844135802584e-01 9.287750771604937894e-01 9.589221643518518468e-01 9.958497299382715884e-01 1.030176986882715973e+00 1.139365837191357977e+00 1.009514371141975175e+00 9.120867091049382758e-01 8.438136574074074359e-01 7.958945794753086167e-01 7.548321759259258856e-01 7.166575038580247359e-01 6.911308834876542795e-01 6.811549961419752774e-01 6.714785879629628917e-01 6.580463927469135665e-01 6.512659143518518823e-01 6.424840856481481843e-01 6.424908371913580218e-01 6.438305362654320740e-01 6.482315779320988458e-01 6.595867091049382180e-01 6.745857445987654133e-01 6.905690586419752641e-01 7.103144290123456495e-01 7.250207368827160659e-01 7.460980902777778478e-01 7.699710648148148096e-01 7.955748456790122658e-01 8.297125771604937361e-01 8.561366705246913344e-01 8.888536844135802584e-01 9.229359567901235240e-01 9.597477816358024327e-01 1.000947627314814792e+00 1.030140817901234573e+00 1.073661747685185075e+00 9.399291087962963198e-01 8.585387731481480822e-01 8.063816550925925197e-01 7.752666859567901581e-01 7.493595679012344801e-01 7.250737847222221699e-01 7.064631558641975007e-01 7.112654320987653600e-01 7.000554591049382713e-01 6.909548611111111516e-01 6.823905285493827577e-01 6.844830246913580218e-01 6.854663387345679704e-01 6.914110725308642014e-01 7.071691743827160925e-01 7.215436921296296546e-01 7.368918788580246515e-01 7.636410108024691556e-01 7.783097029320987792e-01 8.202295524691358697e-01 8.433830054012345645e-01 8.717423804012346400e-01 9.058757716049382624e-01 9.290552662037037113e-01 9.620847800925926840e-01 9.966497878086419959e-01 1.032722800925925943e+00 1.036974344135802584e+00 1.003038194444444420e+00 9.598138503086418583e-01 8.393542631172838941e-01 7.899932484567901980e-01 7.693971836419752908e-01 7.514091435185185075e-01 7.485281635802469857e-01 7.432339891975309198e-01 7.424488811728394699e-01 7.299532214506173622e-01 7.223109567901234707e-01 7.118185763888889017e-01 7.150472608024691645e-01 7.216121720679012919e-01 7.306278935185185341e-01 7.432744984567900559e-01 7.626359953703704120e-01 7.840113811728395277e-01 7.995500578703703676e-01 8.179918981481481000e-01 8.390451388888889861e-01 8.687678433641974340e-01 8.922646604938272441e-01 9.200188078703703809e-01 9.444516782407407218e-01 9.793296682098764361e-01 1.017043788580246799e+00 1.063852237654320909e+00 1.089162808641975344e+00 1.061699942129629592e+00 9.772116126543209935e-01 8.922540509259259123e-01 8.412620563271604457e-01 7.415123456790123635e-01 7.034157986111111427e-01 6.798876350308642458e-01 6.579456018518518023e-01 6.529793595679012075e-01 6.419613233024691334e-01 6.318036265432098730e-01 6.171566358024691556e-01 6.095572916666666119e-01 6.098818479938271642e-01 6.188445216049383024e-01 6.238498263888888618e-01 6.345500578703703320e-01 6.525380979938272263e-01 6.666454475308641880e-01 6.852850115740740655e-01 7.028380594135802406e-01 7.213213734567900381e-01 7.447964891975309421e-01 7.725733024691358031e-01 8.019126157407406863e-01 8.333738425925926174e-01 8.641454475308641969e-01 9.019285300925926618e-01 9.459529320987655199e-01 9.560435956790124257e-01 9.216116898148148939e-01 8.422853973765432878e-01 7.719290123456790109e-01 7.052546296296295925e-01 7.040644290123456717e-01 6.099889081790124123e-01 5.810561342592592826e-01 5.658849344135802317e-01 5.596686921296296635e-01 5.521590470679011986e-01 5.480854552469135443e-01 5.396098572530864113e-01 5.382479745370369884e-01 5.434389467592593004e-01 5.514969135802468836e-01 5.654470486111110583e-01 5.769912229938271020e-01 5.923644868827160348e-01 6.089009452160493163e-01 6.240750385802469324e-01 6.420558449074074137e-01 6.598128858024692178e-01 6.792616705246913300e-01 7.064457947530864423e-01 7.658960262345678727e-01 7.979354745370370594e-01 8.283907214506173178e-01 8.730319251543210424e-01 8.963450038580247359e-01 8.711617476851851727e-01 8.049585262345678727e-01 7.338083526234567833e-01 6.846108217592592471e-01 6.497974537037036757e-01 6.777049575617284383e-01 5.999551504629629939e-01 5.853404706790122924e-01 5.806563464506172556e-01 5.757884837962963243e-01 5.691830632716049498e-01 5.625737847222221921e-01 5.620365547839506482e-01 5.693460648148147563e-01 5.797092013888889284e-01 5.961082175925925819e-01 6.130955825617283583e-01 6.309837962962963065e-01 6.557421875000000178e-01 6.771412037037036757e-01 7.044917052469136243e-01 7.220331790123456495e-01 7.496739969135802761e-01 7.835030864197530809e-01 8.145437885802470079e-01 8.470351080246913966e-01 8.915658757716049543e-01 9.348427854938271553e-01 9.819266010802468747e-01 1.009192708333333188e+00 9.928703703703702921e-01 9.210093557098765205e-01 8.435498649691357542e-01 7.914110725308641792e-01 7.583342978395061218e-01 7.458849344135802806e-01 8.075438850308641614e-01 7.281139081790123369e-01 7.241714891975308266e-01 7.207817322530863935e-01 7.113570601851851860e-01 7.072024498456790376e-01 7.071412037037037024e-01 7.156876929012345734e-01 7.285701195987654977e-01 7.485190007716049365e-01 7.679132908950616621e-01 7.910884452160493741e-01 8.124146412037036580e-01 8.405811149691357897e-01 8.730034722222221877e-01 8.958714313271605167e-01 9.258998842592591760e-01 9.637958140432099086e-01 1.000566165123456752e+00 1.046915027006172894e+00 1.095806327160493865e+00 1.120008680555555580e+00 1.087506269290123395e+00 1.024460841049382731e+00 9.494208140432097709e-01 8.958068094135802628e-01 8.725988618827160703e-01 8.610976080246913744e-01 8.637186535493827089e-01 8.704870756172838897e-01 8.704836998456790820e-01 9.327319637345679038e-01 8.509235146604938738e-01 8.444092399691357498e-01 8.451591435185185075e-01 8.568021797839505682e-01 8.835484182098766182e-01 9.077618634259259078e-01 9.333777006172839785e-01 9.651692708333333703e-01 9.921117862654320607e-01 1.026700906635802379e+00 1.054746334876543123e+00 1.083503086419753236e+00 1.123152488425926077e+00 1.160491415895061884e+00 1.202071277006173000e+00 1.246798321759259309e+00 1.248046392746913424e+00 1.182278645833333419e+00 1.010202546296296244e+00 9.519704861111110139e-01 9.134948881172839652e-01 8.966927083333333659e-01 8.852686149691358919e-01 8.733424961419753441e-01 8.633333333333332860e-01 8.547675540123457205e-01 8.433791473765432922e-01 8.418624614197530720e-01 8.346629050925926663e-01 9.070592206790123457e-01 8.525106095679012563e-01 8.651282793209875699e-01 8.902941743827160748e-01 9.169082754629629406e-01 9.459678819444444775e-01 9.782093942901234351e-01 1.003235918209876676e+00 1.027542920524691317e+00 1.058451003086419817e+00 1.094471450617283903e+00 1.132608506944444260e+00 1.167205825617283921e+00 1.163890817901234609e+00 1.081087962962963056e+00 9.793696952160494407e-01 8.912615740740740256e-01 8.394241898148148140e-01 8.025612461419753263e-01 7.676736111111110983e-01 7.405203510802469413e-01 7.262615740740739900e-01 7.119005594135802140e-01 6.992293595679012208e-01 6.811545138888889239e-01 6.726625192901234396e-01 6.737451774691358697e-01 6.838401813271605123e-01 6.924493634259258901e-01 7.057286844135802761e-01 7.203795331790122658e-01 8.399098186728395365e-01 7.740369405864198082e-01 7.855685763888888840e-01 7.978698881172839874e-01 8.248615933641975095e-01 8.413695987654321584e-01 8.753616898148147696e-01 9.064375964506172778e-01 9.456925154320988680e-01 9.732759452160493208e-01 9.476446759259259389e-01 8.631611689814814303e-01 7.735431134259259656e-01 7.085585455246913300e-01 6.674590084876543816e-01 6.340923996913579996e-01 6.024006558641975539e-01 5.834061535493827444e-01 5.713792438271604324e-01 5.633092206790123457e-01 5.456997492283951479e-01 5.370760995370369439e-01 5.328708526234567922e-01 5.335976080246913611e-01 5.445143711419753174e-01 5.528105709876544038e-01 5.632672646604938160e-01 5.789240933641974785e-01 6.015870949074073604e-01 6.187456597222221744e-01 6.338941936728395010e-01 7.826446759259259034e-01 7.161795910493827799e-01 7.230020254629629939e-01 7.457272376543209180e-01 7.749122299382715795e-01 8.067250192901235240e-01 8.330155285493826556e-01 8.503708526234567966e-01 8.110619212962962843e-01 7.340808256172839386e-01 6.546706211419753840e-01 6.053284143518519178e-01 5.811178626543209713e-01 5.578684413580247137e-01 5.452527006172839252e-01 5.362581983024691246e-01 5.341666666666666785e-01 5.258892746913580440e-01 5.117988040123456761e-01 5.085435956790123058e-01 5.088609182098765560e-01 5.208772183641975362e-01 5.333400848765431634e-01 5.461082175925925375e-01 5.617857831790122880e-01 5.785026041666666563e-01 5.958381558641975273e-01 6.110706018518518023e-01 6.337876157407407174e-01 6.523191550925926396e-01 8.058613040123456805e-01 7.437017746913580085e-01 7.602025462962962443e-01 7.846657986111110761e-01 7.717920524691358475e-01 7.147559799382716683e-01 6.427522183641974918e-01 5.821995563271604723e-01 5.355907600308641436e-01 5.057171103395061706e-01 4.939347029320987903e-01 4.826745756172839408e-01 4.781187307098765382e-01 4.777604166666666874e-01 4.642804783950617020e-01 4.557421875000000067e-01 4.518267746913580130e-01 4.537032214506173111e-01 4.566893325617283894e-01 4.587432484567900981e-01 4.745322145061727781e-01 4.873789544753086012e-01 5.007744984567901181e-01 5.150255594135801918e-01 5.335595100308642147e-01 5.524672067901233996e-01 5.716285686728395099e-01 5.949860146604938338e-01 6.190002893518519178e-01 6.468692129629629584e-01 6.709944058641974518e-01 8.679875578703704075e-01 7.605680941358025082e-01 6.849006558641975717e-01 5.990485146604938027e-01 5.306433256172838897e-01 4.817968750000000688e-01 4.460054976851852149e-01 4.220529513888888751e-01 4.043041087962963021e-01 3.916208526234567500e-01 3.836791087962962976e-01 3.735561342592592649e-01 3.640007716049382669e-01 3.587871334876542861e-01 3.602965856481481488e-01 3.642510609567901070e-01 3.734264081790123480e-01 3.860836226851851460e-01 3.952618634259259522e-01 4.077131558641975406e-01 4.201996527777777657e-01 4.321947337962963043e-01 4.510667438271604990e-01 4.665793788580246959e-01 4.864578510802469169e-01 5.058449074074073959e-01 5.327146026234567122e-01 5.557643711419752997e-01 5.830073302469135355e-01 6.186236496913580796e-01 6.163146219135802184e-01 6.491319444444444420e-01 5.289187885802469902e-01 4.605917245370370061e-01 4.213609182098765338e-01 3.926060956790123346e-01 3.687880979938271686e-01 3.557730516975308732e-01 3.487442129629629850e-01 3.405598958333333481e-01 3.390350115740740633e-01 3.315596064814815280e-01 3.292766203703703654e-01 3.266044560185185630e-01 3.350892168209876343e-01 3.406621334876542839e-01 3.537929205246913567e-01 3.672902199074074003e-01 3.927136381172839363e-01 4.103607253086419826e-01 4.268957368827160370e-01 4.464684606481481577e-01 4.697140239197530875e-01 4.911385995370370350e-01 5.145543981481481843e-01 5.449430941358024416e-01 5.791512345679012963e-01 6.160416666666667096e-01 6.410262345679011986e-01 6.433502121913580174e-01 5.912254050925925819e-01 5.664824459876544038e-01 4.583289930555555780e-01 4.231172839506172623e-01 4.104644097222222010e-01 4.001490162037036891e-01 3.955034722222222077e-01 3.937003279320987481e-01 3.924652777777777879e-01 3.863122106481481910e-01 3.772646604938271753e-01 3.732576195987654111e-01 3.759500385802469480e-01 3.859143518518518556e-01 3.983106674382715928e-01 4.116700424382716550e-01 4.267250192901234640e-01 4.449556327160493763e-01 4.564433834876542861e-01 4.790258487654321384e-01 4.952261766975308843e-01 5.141546103395061573e-01 5.375424382716049720e-01 5.608058449074074803e-01 5.887017746913579819e-01 6.244463734567901048e-01 6.595992476851851860e-01 6.629803240740740344e-01 6.104239004629629095e-01 5.463560956790123324e-01 4.932884837962962510e-01 4.570052083333333570e-01 4.791517168209876720e-01 4.029036458333333237e-01 3.904176311728395077e-01 3.897680362654321051e-01 3.852604166666666607e-01 3.772627314814814836e-01 3.690142746913580019e-01 3.694434799382716461e-01 3.686260609567901247e-01 3.773244598765432278e-01 3.925704089506172889e-01 4.036593364197531009e-01 4.185271990740740411e-01 4.341213348765431967e-01 4.494000771604937938e-01 4.684500385802469191e-01 4.840557484567901136e-01 5.062750771604938027e-01 5.260590277777776880e-01 5.480116705246913522e-01 5.739115547839506171e-01 6.071855709876542440e-01 6.417780671296295925e-01 6.485035686728395365e-01 6.036848958333332904e-01 5.331843171296295480e-01 4.655806327160493807e-01 4.240186149691358430e-01 3.985546875000000044e-01 3.783116319444444486e-01 3.596035879629629339e-01 4.019130979938271842e-01 3.361005015432098619e-01 3.160132137345678660e-01 3.073341049382716239e-01 3.022313850308642191e-01 3.060271990740740522e-01 3.130087770061728558e-01 3.198225308641975406e-01 3.327478780864197572e-01 3.456298225308642169e-01 3.635098379629629339e-01 3.799995177469135399e-01 3.976630015432098819e-01 4.189149305555555647e-01 4.417269483024691690e-01 4.685238233024691112e-01 4.934129050925925575e-01 5.585599922839505904e-01 5.979841820987653600e-01 6.289062500000000000e-01 6.292433449074074092e-01 5.726929012345678416e-01 5.093494405864197327e-01 4.586805555555555358e-01 4.314978780864197616e-01 4.112770061728395210e-01 3.966975308641975118e-01 3.867915702160493741e-01 3.848307291666666630e-01 3.788691165123456717e-01 4.347352430555555536e-01 3.674194637345679082e-01 3.575260416666666829e-01 3.525694444444444353e-01 3.590596064814814969e-01 3.695698302469135887e-01 3.865417631172839430e-01 4.074402006172839208e-01 4.282643711419753529e-01 4.488589891975308666e-01 4.668899498456790531e-01 4.874990354938271708e-01 5.115422453703704075e-01 5.425978973765432922e-01 5.663903356481482243e-01 6.018643904320988280e-01 6.376707175925926396e-01 6.716960841049381958e-01 6.655251736111110761e-01 6.237717013888888218e-01 5.661332947530863802e-01
1.221008969907407504e+01 1.219364197530864224e+01 1.207709104938271594e+01 1.194002893518518604e+01 1.209953607253086361e+01 1.219504581404321009e+01 1.228449315200617242e+01 1.232981819058641904e+01 1.236829619984567863e+01 1.239891830632715930e+01 1.243463589891975296e+01 1.246192226080246890e+01 1.248950954861111207e+01 1.251014901620370345e+01 1.252163435570987637e+01 1.252981192129629662e+01 1.253779803240740698e+01 1.253287953317901149e+01 1.253852382330246940e+01 1.255496865354938230e+01 1.257543065200617427e+01 1.257842737268518540e+01 1.254133342978395049e+01 1.251202594521604894e+01 1.248855854552469147e+01 1.247433063271604858e+01 1.248771556712963005e+01 1.250527391975308689e+01 1.250973331404320987e+01 1.253069974922839513e+01 1.252463831018518547e+01 1.259970871913580304e+01 1.257771460262345720e+01 1.252294463734567920e+01 1.254022714120370452e+01 1.256495370370370424e+01 1.257714554398148188e+01 1.258635754243827165e+01 1.259922743055555472e+01 1.259967640817901113e+01 1.288215229552469232e+01 1.285217930169753053e+01 1.272778452932098858e+01 1.257792679398148294e+01 1.241465084876543123e+01 1.224790846836419789e+01 1.245719666280864146e+01 1.250431664737654280e+01 1.252862509645061628e+01 1.255757040895061749e+01 1.259501543209876573e+01 1.265354407793209823e+01 1.271236786265432173e+01 1.275411699459876580e+01 1.280183207947530732e+01 1.285535252700617370e+01 1.290042148919753018e+01 1.295134452160493765e+01 1.298068431712962933e+01 1.288279803240740762e+01 1.285033661265432237e+01 1.284258391203703731e+01 1.288075906635802426e+01 1.282346016589506199e+01 1.282683641975308753e+01 1.283255545910493822e+01 1.286094762731481467e+01 1.286637972608024683e+01 1.288712432484567927e+01 1.289552662037037045e+01 1.289516203703703745e+01 1.291915509259259309e+01 1.292490451388888850e+01 1.289480999228395142e+01 1.283431761188271558e+01 1.278237895447530903e+01 1.276426118827160394e+01 1.275687548225308632e+01 1.273629002700617363e+01 1.276213734567901170e+01 1.278016155478395177e+01 1.278002893518518412e+01 1.277036168981481445e+01 1.278884259259259260e+01 1.278211371527777729e+01 1.276652054398148195e+01 1.278329475308641960e+01 1.279990885416666657e+01 1.280006365740740826e+01 1.279985194830246975e+01 1.283327594521604986e+01 1.285280767746913533e+01 1.284646556712962884e+01 1.284759307484567792e+01 1.282747010030864132e+01 1.285728587962962877e+01 1.286308015046296305e+01 1.288663001543209852e+01 1.287771412037037067e+01 1.289602816358024739e+01 1.290579764660493822e+01 1.289425298996913583e+01 1.284415219907407391e+01 1.278873649691358061e+01 1.276878809799382708e+01 1.276154320987654422e+01 1.274494020061728428e+01 1.273812837577160550e+01 1.274683111496913668e+01 1.276691792052469232e+01 1.277699459876543209e+01 1.277155815972222186e+01 1.277841531635802497e+01 1.279415702160493851e+01 1.282303771219135768e+01 1.284077787422839556e+01 1.285169415509259139e+01 1.288022087191358089e+01 1.288683593749999901e+01 1.290199363425925938e+01 1.292536265432098830e+01 1.292915412808642017e+01 1.294127218364197418e+01 1.295170476466049436e+01 1.301401379243827172e+01 1.297528260030864189e+01 1.299175974151234669e+01 1.300840518904320930e+01 1.301505449459876473e+01 1.300620032793209901e+01 1.295862413194444329e+01 1.292049382716049344e+01 1.289136043595679126e+01 1.288551552854938365e+01 1.289603346836419817e+01 1.289310570987654359e+01 1.291110869984567877e+01 1.291455777391975168e+01 1.291748408564814810e+01 1.291691792052469268e+01 1.292971643518518476e+01 1.294587384259259366e+01 1.295176408179012384e+01 1.295049141589506192e+01 1.296033516589506185e+01 1.296608024691358096e+01 1.296319106867283999e+01 1.295980227623456749e+01 1.297738570601851826e+01 1.297852768132716150e+01 1.296852430555555635e+01 1.297929205246913575e+01 1.298581838348765594e+01 1.299670090663580346e+01 1.301442949459876530e+01 1.308102719907407341e+01 1.306207706404321023e+01 1.307406153549382744e+01 1.306850790895061820e+01 1.301684510030864317e+01 1.295761477623456770e+01 1.291772183641975325e+01 1.288755208333333258e+01 1.285986930941357897e+01 1.283349488811728278e+01 1.282238763503086432e+01 1.283350983796296241e+01 1.283197868441358125e+01 1.280676504629629520e+01 1.279603877314814753e+01 1.279618152006172771e+01 1.279872154706790077e+01 1.280750626929012448e+01 1.282135368441358025e+01 1.284134403935185098e+01 1.286404803240740691e+01 1.286673080632716015e+01 1.288533613040123527e+01 1.290988184799382665e+01 1.292271942515432137e+01 1.295018566743827293e+01 1.297469666280864153e+01 1.299934510030864132e+01 1.301691358024691247e+01 1.302670235339506100e+01 1.304581404320987659e+01 1.312802517361111043e+01 1.307508777006172807e+01 1.305255063657407533e+01 1.301592930169753082e+01 1.297551601080246897e+01 1.295813368055555515e+01 1.295813223379629520e+01 1.296687210648148003e+01 1.298585937500000043e+01 1.299103732638888964e+01 1.299092013888888886e+01 1.299744309413580368e+01 1.298890335648148131e+01 1.299717881944444464e+01 1.300149064429012391e+01 1.302070457175925888e+01 1.301412422839506178e+01 1.303011863425926009e+01 1.307197096836419625e+01 1.308790943287037045e+01 1.310559606481481509e+01 1.311474103009259373e+01 1.313282937885802326e+01 1.313940248842592595e+01 1.315158468364197475e+01 1.317368248456790170e+01 1.318799913194444429e+01 1.321239824459876466e+01 1.322934606481481445e+01 1.321106626157407504e+01 1.316871045524691475e+01 1.317595727237654302e+01 1.313735869984567906e+01 1.313512008101851869e+01 1.313009211033950585e+01 1.314063078703703802e+01 1.314010802469135797e+01 1.313195119598765359e+01 1.314079330632715958e+01 1.313790943287037116e+01 1.313592737268518640e+01 1.313496238425925888e+01 1.314643518518518484e+01 1.314636766975308646e+01 1.316277777777777658e+01 1.317695746527777878e+01 1.319235291280864253e+01 1.319691888503086474e+01 1.322196759259259302e+01 1.324807436342592659e+01 1.327162615740740748e+01 1.328463252314814902e+01 1.329282118055555628e+01 1.327465856481481588e+01 1.321614583333333393e+01 1.315723861882716150e+01 1.313082754629629711e+01 1.312051552854938308e+01 1.311365547839506185e+01 1.312573881172839485e+01 1.313982397762345578e+01 1.326307002314814909e+01 1.322704137731481389e+01 1.322069106867283850e+01 1.320849295910493737e+01 1.320788676697530839e+01 1.322887297453703681e+01 1.322663049768518384e+01 1.323524980709876608e+01 1.323705102237654252e+01 1.324925009645061635e+01 1.326841049382715987e+01 1.327499855324074041e+01 1.327414882330246826e+01 1.328466145833333378e+01 1.328735194830247046e+01 1.330996817129629584e+01 1.331705632716049337e+01 1.331073206018518640e+01 1.327940104166666657e+01 1.320279706790123520e+01 1.315569974922839513e+01 1.313303819444444365e+01 1.311213155864197510e+01 1.309426215277777850e+01 1.310897907021604958e+01 1.310564911265432109e+01 1.310746768904320980e+01 1.312051215277777771e+01 1.311637683256172870e+01 1.311647231867283914e+01 1.311360387731481580e+01 1.325238667052469133e+01 1.320332175925925888e+01 1.320481722608024633e+01 1.320345823688271558e+01 1.321564814814814781e+01 1.321695023148148174e+01 1.322459731867283850e+01 1.324802565586419689e+01 1.326673225308642046e+01 1.326803530092592531e+01 1.327807870370370402e+01 1.329294174382716065e+01 1.330309799382716029e+01 1.329342785493827073e+01 1.324141396604938237e+01 1.316591049382715894e+01 1.312573254243827137e+01 1.308157600308642010e+01 1.308516396604938237e+01 1.307852768132716115e+01 1.307120418595678935e+01 1.308642361111111008e+01 1.309021170910493836e+01 1.309533227237654351e+01 1.307832272376543159e+01 1.308744791666666707e+01 1.309504629629629591e+01 1.311715615354938258e+01 1.313741898148148124e+01 1.314063609182098880e+01 1.314834249614197503e+01 1.329404610339506121e+01 1.323834297839506213e+01 1.323135754243827122e+01 1.323732349537037045e+01 1.324114004629629626e+01 1.324307918595678935e+01 1.326110725308641847e+01 1.327669319058641939e+01 1.327498215663580261e+01 1.322359905478394992e+01 1.314914641203703738e+01 1.309199074074074076e+01 1.307668161651234406e+01 1.307099585262345620e+01 1.307268614969135712e+01 1.307786410108024633e+01 1.310341772762345514e+01 1.310461033950617171e+01 1.311245418595679091e+01 1.310594666280864118e+01 1.311356240354938230e+01 1.314689959490740634e+01 1.315577739197530960e+01 1.315763744212963005e+01 1.316970582561728342e+01 1.317863233024691283e+01 1.319614920910493971e+01 1.320499228395061664e+01 1.322141975308641904e+01 1.322605372299382687e+01 1.334677131558641960e+01 1.327463831018518547e+01 1.329041521990740726e+01 1.326324122299382680e+01 1.319178144290123456e+01 1.314296055169753075e+01 1.311280526620370424e+01 1.309250241126543202e+01 1.309357687114197510e+01 1.308992669753086346e+01 1.310826147762345606e+01 1.310456934799382722e+01 1.309666618441358032e+01 1.309488522376543251e+01 1.309323977623456692e+01 1.311102961033950720e+01 1.312564236111111171e+01 1.313064332561728342e+01 1.314149643132715894e+01 1.316651331018518611e+01 1.317627459490740627e+01 1.317595679012345578e+01 1.318934944058642067e+01 1.321358651620370317e+01 1.323673080632716115e+01 1.323801890432098816e+01 1.325487461419753110e+01 1.327622636959876701e+01 1.328536120756172778e+01 1.330319974922839421e+01 1.330695119598765430e+01 1.335560185185185134e+01 1.328334780092592560e+01 1.321881944444444557e+01 1.319142988040123399e+01 1.315371431327160501e+01 1.313513792438271466e+01 1.312321084104938329e+01 1.309977334104938329e+01 1.310815393518518412e+01 1.311723331404320980e+01 1.311015721450617200e+01 1.310621817129629640e+01 1.311320650077160543e+01 1.310427469135802525e+01 1.312297164351851997e+01 1.312800443672839457e+01 1.314607204861111178e+01 1.315537760416666657e+01 1.316698591820987652e+01 1.318689187885802561e+01 1.318643614969135847e+01 1.320872878086419888e+01 1.323290846836419732e+01 1.325234326774691418e+01 1.327179928626543237e+01 1.328172887731481389e+01 1.330833960262345705e+01 1.332095293209876630e+01 1.331888840663580176e+01 1.333475983796296305e+01 1.333599971064814937e+01 1.337483796296296390e+01 1.332152150848765437e+01 1.325353153935185091e+01 1.321591917438271579e+01 1.321506703317901277e+01 1.319870707947530875e+01 1.318886622299382694e+01 1.319199315200617306e+01 1.320751543209876466e+01 1.320563271604938294e+01 1.319822916666666579e+01 1.320203800154320994e+01 1.320322048611111043e+01 1.321677420910493872e+01 1.321889226466049472e+01 1.324853780864197539e+01 1.326993827160493744e+01 1.327478298611111107e+01 1.327850694444444457e+01 1.328703896604938173e+01 1.331086178626543237e+01 1.333071180555555557e+01 1.334119550540123456e+01 1.334660831404320902e+01 1.335408805941358068e+01 1.337256413966049351e+01 1.337846113040123441e+01 1.339867766203703603e+01 1.339334346064814874e+01 1.333216531635802582e+01 1.336897135416666771e+01 1.334287471064814845e+01 1.330016878858024576e+01 1.328782889660493716e+01 1.327755256558642039e+01 1.328098717206790091e+01 1.328602430555555536e+01 1.327440923996913469e+01 1.328635657793209823e+01 1.328655767746913696e+01 1.326947145061728506e+01 1.326369309413580311e+01 1.327403260030864196e+01 1.330598476080246861e+01 1.330737702546296397e+01 1.331802565586419718e+01 1.332307098765432052e+01 1.333905815972222086e+01 1.335330922067901227e+01 1.336186053240740890e+01 1.337437596450617328e+01 1.339713975694444592e+01 1.340173273533950749e+01 1.342094955632716058e+01 1.343456307870370381e+01 1.344313657407407447e+01 1.345766975308641911e+01 1.344726851851851812e+01 1.340792872299382665e+01 1.331607494212962983e+01 1.323810185185185162e+01 1.336304349922839485e+01 1.333688994984567877e+01 1.329795090663580304e+01 1.327159770447530995e+01 1.326568913966049479e+01 1.328607108410493787e+01 1.327506413966049337e+01 1.326147376543209866e+01 1.325808545524691340e+01 1.324055073302469232e+01 1.325353202160493815e+01 1.327197916666666622e+01 1.328416570216049308e+01 1.328755642361111100e+01 1.331347029320987652e+01 1.333144531249999964e+01 1.334069058641975225e+01 1.335315393518518512e+01 1.337204330632716065e+01 1.338669463734567877e+01 1.341387827932098809e+01 1.343984664351851777e+01 1.343026186342592609e+01 1.345190152391975325e+01 1.346923562885802461e+01 1.347646170910493879e+01 1.346601514274691347e+01 1.340782841435185091e+01 1.332424961419753018e+01 1.326224681712962905e+01 1.323778935185185190e+01 1.336666618441357990e+01 1.334657744984567884e+01 1.331359085648148266e+01 1.329751205632716093e+01 1.328859278549382772e+01 1.328980324074074026e+01 1.327726948302469268e+01 1.327875868055555664e+01 1.327894290123456855e+01 1.328677613811728442e+01 1.328392457561728435e+01 1.330560281635802511e+01 1.331542438271604922e+01 1.332348138503086332e+01 1.334031539351851769e+01 1.335527102623456841e+01 1.335488811728395042e+01 1.335643180941358032e+01 1.338056278935185262e+01 1.339816550925925931e+01 1.342624517746913604e+01 1.345021749614197581e+01 1.345022858796296283e+01 1.346434558256172842e+01 1.346871238425925910e+01 1.342527006172839421e+01 1.335395158179012221e+01 1.327047212577160451e+01 1.323724295910493787e+01 1.322445167824074019e+01 1.341120852623456727e+01 1.336272521219135712e+01 1.333393180941358125e+01 1.333048321759259203e+01 1.331822627314814866e+01 1.330017505787036924e+01 1.330879099151234435e+01 1.332443865740740740e+01 1.333861207561728435e+01 1.334631172839506164e+01 1.335896170910493908e+01 1.338305169753086332e+01 1.340339795524691446e+01 1.340328848379629711e+01 1.340751253858024761e+01 1.342700713734567763e+01 1.344172260802469232e+01 1.345886043595679027e+01 1.346096884645061742e+01 1.348148967978394985e+01 1.348872781635802554e+01 1.350402922453703702e+01 1.352147424768518569e+01 1.355415412808642017e+01 1.354953173225308660e+01 1.350577015817901305e+01 1.342012490354938237e+01 1.337097173996913568e+01 1.333301070601851812e+01 1.333549045138888900e+01 1.333467013888888886e+01 1.353909336419753018e+01 1.349477816358024640e+01 1.346826003086419732e+01 1.347504677854938215e+01 1.346718942901234506e+01 1.344796682098765395e+01 1.344424961419753117e+01 1.345054735725308781e+01 1.347049816743827222e+01 1.348639130015432208e+01 1.350435378086419824e+01 1.350441020447530960e+01 1.351801793981481481e+01 1.353532841435185219e+01 1.357030767746913469e+01 1.357334683641975204e+01 1.358246768904320945e+01 1.358510898919753096e+01 1.360541473765432130e+01 1.362790702160493872e+01 1.364012152777777764e+01 1.364864969135802397e+01 1.358302276234567962e+01 1.351093991126543159e+01 1.346399064429012249e+01 1.342791280864197567e+01 1.342970823688271587e+01 1.342695987654320966e+01 1.344357011959876580e+01 1.347032069830246925e+01 1.347066358024691368e+01 1.360655526620370281e+01 1.358088445216049323e+01 1.354681761188271594e+01 1.355078221450617271e+01 1.355903404706790205e+01 1.357243103780864146e+01 1.359087480709876594e+01 1.360750241126543258e+01 1.361418740354938173e+01 1.362654128086419725e+01 1.363310378086419661e+01 1.363914255401234499e+01 1.365239728009259146e+01 1.367627989969135882e+01 1.369122299382716079e+01 1.370854648919753060e+01 1.372361979166666579e+01 1.369833381558641960e+01 1.362313753858024690e+01 1.349489872685185254e+01 1.348570698302469140e+01 1.348580873842592531e+01 1.348202642746913504e+01 1.348414882330246911e+01 1.349393422067901227e+01 1.350163532021604951e+01 1.350277584876543280e+01 1.348441454475308632e+01 1.347168933256172707e+01 1.348198784722222143e+01 1.358611882716049379e+01 1.352667775848765430e+01 1.354474874614197510e+01 1.356969328703703681e+01 1.358124083719135911e+01 1.360161024305555699e+01 1.359533902391975424e+01 1.359538724922839492e+01 1.361674913194444336e+01 1.362899932484567955e+01 1.364616464120370409e+01 1.366588300540123591e+01 1.366803192515432208e+01 1.362713686342592467e+01 1.356102527006172842e+01 1.347340133101851833e+01 1.342664834104938265e+01 1.339798659336419817e+01 1.338440875771605043e+01 1.338136766975308589e+01 1.337239101080246861e+01 1.338118586033950663e+01 1.337254629629629576e+01 1.338416136188271466e+01 1.337687596450617278e+01 1.338023003472222250e+01 1.340006221064814795e+01 1.341255304783950564e+01 1.342168499228395184e+01 1.345498312114197503e+01 1.346299045138888850e+01 1.352600839120370324e+01 1.349227382330246883e+01 1.348140432098765373e+01 1.348520543981481445e+01 1.351892505787036924e+01 1.354498456790123484e+01 1.355853202160493787e+01 1.357755208333333385e+01 1.358587625385802511e+01 1.359165798611111065e+01 1.354463927469135776e+01 1.346283179012345776e+01 1.337944782021604873e+01 1.333009837962963040e+01 1.330421296296296241e+01 1.329408275462962941e+01 1.328938512731481580e+01 1.329764467592592503e+01 1.330573109567901113e+01 1.332124131944444301e+01 1.331436390817901305e+01 1.332359905478394957e+01 1.332121045524691283e+01 1.332048755787037031e+01 1.333381847993827130e+01 1.335836998456790070e+01 1.338022328317901177e+01 1.339903838734567820e+01 1.340273533950617235e+01 1.342308207947530896e+01 1.342661024305555628e+01 1.349814236111111043e+01 1.344286699459876466e+01 1.346497829861111128e+01 1.346361738040123335e+01 1.350125385802469147e+01 1.352163773148148174e+01 1.354691020447530825e+01 1.353995129243827122e+01 1.347731722608024718e+01 1.338606047453703773e+01 1.332257137345678899e+01 1.330051649305555550e+01 1.328490017361111164e+01 1.327430989583333343e+01 1.329937114197530867e+01 1.331372395833333222e+01 1.332328124999999908e+01 1.329066165123456855e+01 1.329850646219135868e+01 1.332940972222222342e+01 1.334225549768518526e+01 1.335052131558641975e+01 1.337179108796296312e+01 1.337334297839506192e+01 1.340454427083333222e+01 1.340148389274691354e+01 1.342430989583333378e+01 1.343205729166666806e+01 1.344892554012345620e+01 1.346111448688271572e+01 1.355835503472222214e+01 1.350908854166666551e+01 1.352631269290123406e+01 1.353829282407407497e+01 1.350685136959876509e+01 1.343810908564814710e+01 1.337264564043209880e+01 1.331146267361111235e+01 1.329583333333333250e+01 1.328513647762345684e+01 1.327535300925925910e+01 1.329632137345678977e+01 1.329995515046296362e+01 1.329024112654320966e+01 1.328304783950617285e+01 1.327422260802469189e+01 1.327286072530864125e+01 1.328162567515432180e+01 1.329999758873456805e+01 1.333317853009259402e+01 1.334904658564814817e+01 1.335749469521604915e+01 1.338491512345679091e+01 1.338470486111111235e+01 1.339531491126543195e+01 1.340816984953703717e+01 1.342529224537037003e+01 1.342854407793209859e+01 1.343942226080246982e+01 1.345631124614197383e+01 1.347906442901234669e+01 1.360312596450617306e+01 1.353653018904321037e+01 1.345285638503086467e+01 1.339240547839506235e+01 1.331527247299382744e+01 1.328243248456790049e+01 1.327743586033950685e+01 1.324567226080247018e+01 1.322701726466049443e+01 1.322647521219135847e+01 1.322432532793209958e+01 1.322262152777777722e+01 1.323414978780864182e+01 1.322064332561728506e+01 1.323464506172839528e+01 1.324202883873456749e+01 1.325501591435185134e+01 1.327034722222222207e+01 1.328086130401234577e+01 1.328723476080246790e+01 1.328525752314814845e+01 1.330511091820987701e+01 1.331419174382716086e+01 1.330672212577160529e+01 1.333197337962963047e+01 1.335051601080246897e+01 1.337420138888889021e+01 1.339160927854938343e+01 1.340416473765432137e+01 1.341526234567901277e+01 1.339552324459876509e+01 1.341034239969135911e+01 1.334023582175925959e+01 1.326351948302469097e+01 1.321357542438271615e+01 1.319406057098765395e+01 1.317937596450617299e+01 1.318537471064814781e+01 1.319169126157407312e+01 1.318880401234567934e+01 1.319121624228395184e+01 1.318172598379629612e+01 1.317401957947530811e+01 1.318338348765432144e+01 1.320890383873456742e+01 1.321800202546296354e+01 1.322613763503086304e+01 1.324688994984567891e+01 1.327350115740740755e+01 1.329036458333333393e+01 1.331401716820987779e+01 1.331867814429012320e+01 1.333837336033950649e+01 1.335149402006172892e+01 1.337607687114197574e+01 1.339344328703703724e+01 1.339612509645061600e+01 1.342246672453703660e+01 1.342292582947530732e+01 1.339561728395061735e+01 1.331597415123456685e+01 1.331803578317901149e+01 1.330406635802469140e+01 1.327365644290123470e+01 1.325944106867283878e+01 1.324902199074074183e+01 1.325978636188271587e+01 1.326566502700617356e+01 1.324698254243827122e+01 1.323322530864197510e+01 1.322620225694444329e+01 1.323514853395061763e+01 1.326555796682098887e+01 1.327178337191358004e+01 1.328123070987654231e+01 1.329835599922839506e+01 1.331037663966049323e+01 1.332597270447530846e+01 1.333365933641975332e+01 1.332754726080246854e+01 1.334133921682098745e+01 1.335774498456790127e+01 1.337307822145061742e+01 1.338720100308642103e+01 1.341567226080247011e+01 1.341852864583333194e+01 1.342514130015432094e+01 1.339080825617283921e+01 1.332301070601851833e+01 1.323555410879629690e+01 1.317001880787037038e+01 1.314379581404320874e+01 1.327798418209876630e+01 1.326412278163580183e+01 1.325287278163580140e+01 1.324822771990740655e+01 1.323746720679012334e+01 1.323042004243827030e+01 1.321004967206790148e+01 1.320191454475308745e+01 1.320162374614197454e+01 1.321713686342592631e+01 1.322585455246913533e+01 1.324730999228395056e+01 1.325163387345678956e+01 1.325725260416666806e+01 1.327979311342592617e+01 1.328775704089506249e+01 1.330638985339506064e+01 1.332791039737654337e+01 1.332871431327160394e+01 1.333185570987654422e+01 1.334594135802469062e+01 1.335925491898148110e+01 1.337993971836419860e+01 1.334250626929012284e+01 1.327934076003086439e+01 1.319503231095679041e+01 1.311815200617283850e+01 1.309025800540123363e+01 1.308145399305555578e+01 1.306903597608024725e+01 1.306800781249999943e+01 1.319617959104938265e+01 1.315555073302469147e+01 1.315101417824074126e+01 1.315773437500000043e+01 1.314442997685185155e+01 1.316034288194444457e+01 1.316433256172839528e+01 1.317853057484567891e+01 1.317110243055555507e+01 1.316715181327160522e+01 1.319226948302469005e+01 1.322404803240740634e+01 1.322786554783950663e+01 1.323985001929012384e+01 1.325422164351851961e+01 1.328140480324073991e+01 1.330367332175925910e+01 1.333551263503086304e+01 1.335211564429012299e+01 1.336124131944444393e+01 1.332533034336419853e+01 1.324141396604938237e+01 1.317550974151234477e+01 1.313202449845678998e+01 1.313143614969135875e+01 1.314216772762345720e+01 1.313178915895061749e+01 1.314714602623456763e+01 1.314550443672839641e+01 1.316001012731481445e+01 1.326631992669753046e+01 1.322304783950617235e+01 1.321163483796296312e+01 1.321047453703703667e+01 1.323162663966049379e+01 1.323775848765432173e+01 1.323807243441357961e+01 1.325922501929012221e+01 1.326110580632716029e+01 1.327416859567901142e+01 1.328157069830246861e+01 1.328687934027777828e+01 1.330449459876543195e+01 1.332425298996913554e+01 1.334030864197530875e+01 1.335400559413580268e+01 1.337312596450617264e+01 1.337759403935185176e+01 1.334685040509259402e+01 1.327812644675925924e+01 1.321281684027777814e+01
