1.939181491126543335e+02 1.939181491126543335e+02 1.939110884452160519e+02 1.938360503472222263e+02 1.936720732060184957e+02 1.939797680362654262e+02 1.942712210648148243e+02 1.945291136188271821e+02 1.947853356481481626e+02 1.949980145640432170e+02 1.952332884837963149e+02 1.954456568287037044e+02 1.956786033950617139e+02 1.959252806712962922e+02 1.961526658950617445e+02 1.965975535300925969e+02 1.967361487268518374e+02 1.968610421489197506e+02 1.967183912037037032e+02 1.955969970100308615e+02 1.940992689043209793e+02 1.936826340663580197e+02 1.935824387538580140e+02 1.935541087962963047e+02 1.935713459683641986e+02 1.936163102816358048e+02 1.937494077932098833e+02 1.938049035493827148e+02 1.938009341242284052e+02 1.937417655285493936e+02 1.937268378665123407e+02 1.937919478202160519e+02 1.941244941165123521e+02 1.941361554783950680e+02 1.942819921875000091e+02 1.945329205246913489e+02 1.947929354745370176e+02 1.950194130979938336e+02 1.952296527777777726e+02 1.954210156249999955e+02 1.956418759645061698e+02 1.958356505594135797e+02 1.960609447337963047e+02 1.962936246141975403e+02 1.965213589891975516e+02 1.967892988040123612e+02 1.970484886188271503e+02 1.972845804398148175e+02 1.972739371141975369e+02 1.967458502121913568e+02 1.955640576774691226e+02 1.950930189043209850e+02 1.948741739004629778e+02 1.948038228202160269e+02 1.948146064814814622e+02 1.948956712962963138e+02 1.950185792824073872e+02 1.950826591435185264e+02 1.950212601273148039e+02 1.949509895833333246e+02 1.949419748263889005e+02 1.950017250192901201e+02 1.951432653356481524e+02 1.955140335648148096e+02 1.955259997106481364e+02 1.956626364776234652e+02 1.958511019483024711e+02 1.960083598572530832e+02 1.961757450810185048e+02 1.963184389467592723e+02 1.964564472415123362e+02 1.966023543595678973e+02 1.967724271797839322e+02 1.969512408371913637e+02 1.971531201774691340e+02 1.973585334683642145e+02 1.973201673418209907e+02 1.966740369405864328e+02 1.956535561342592757e+02 1.951837929205246951e+02 1.949743373842592575e+02 1.949072125771604931e+02 1.948974768518518488e+02 1.949678071952160678e+02 1.950675106095679041e+02 1.950785103202160542e+02 1.950078761574074235e+02 1.949065118634259193e+02 1.948777112268518579e+02 1.949352859760802517e+02 1.950392100694444366e+02 1.952024474344135854e+02 1.953967510609568023e+02 1.956077854938271514e+02 1.959993822337962968e+02 1.960744241898148061e+02 1.962143171296296202e+02 1.963691970486111131e+02 1.965353911072530764e+02 1.967173008294753060e+02 1.968940509259259386e+02 1.971017153742284052e+02 1.973288382523148243e+02 1.975600588348765427e+02 1.976203477044753072e+02 1.970656761188271560e+02 1.957510619212962979e+02 1.950346537422839504e+02 1.947874850501543165e+02 1.946895857445987588e+02 1.945866575038580493e+02 1.945117327353395069e+02 1.945205111882715983e+02 1.945507359182098810e+02 1.945414530285493697e+02 1.944762403549382555e+02 1.944445515046296293e+02 1.944547347608024950e+02 1.945419116512345852e+02 1.946823688271605022e+02 1.948583275462962945e+02 1.950596686921296339e+02 1.952515446566358150e+02 1.954353780864197745e+02 1.956208429783950464e+02 1.959762712191358105e+02 1.960492910879629562e+02 1.961834678819444662e+02 1.963750549768518567e+02 1.965938840663580436e+02 1.968127792245370529e+02 1.970331963734567751e+02 1.972970433063271400e+02 1.973899869791666788e+02 1.969963517554012356e+02 1.956758154899691533e+02 1.950438710455246962e+02 1.947180116705247030e+02 1.945956071566358219e+02 1.945406129436728406e+02 1.945005753279321254e+02 1.945171069637345624e+02 1.945860006751543381e+02 1.945981032986111074e+02 1.945550887345678746e+02 1.945165586419753083e+02 1.945593195408950464e+02 1.946817091049382498e+02 1.948559167631172784e+02 1.950569897762345590e+02 1.952760050154321050e+02 1.955061352237654262e+02 1.957190461033950726e+02 1.959175588348765302e+02 1.960874845679012424e+02 1.962476591435185185e+02 1.965611564429012219e+02 1.966464356674382543e+02 1.967874103009259272e+02 1.969545679012345545e+02 1.971259707754629460e+02 1.973158039158950601e+02 1.974755304783950578e+02 1.973125747492283892e+02 1.956122362075617502e+02 1.952426697530864317e+02 1.950950395447530923e+02 1.950665137924382861e+02 1.951323866705246814e+02 1.952539621913580277e+02 1.953480111882716130e+02 1.953316888503086375e+02 1.952458029513888960e+02 1.951837413194444366e+02 1.952036086998456881e+02 1.952976769868827205e+02 1.954733015046296316e+02 1.956416459297839481e+02 1.958275356867283961e+02 1.959847632137345670e+02 1.961228076774691260e+02 1.962693706597222274e+02 1.964416898148148221e+02 1.966245394483024711e+02 1.967958077739197336e+02 1.969775771604938086e+02 1.973750520833333155e+02 1.974825848765432283e+02 1.976563377700617252e+02 1.977739978780864192e+02 1.974476277970678950e+02 1.960705164930555497e+02 1.950445785108024950e+02 1.945530859375000148e+02 1.943774291087962922e+02 1.942833608217592598e+02 1.941449103009259147e+02 1.940722839506173045e+02 1.940840422453703695e+02 1.940585860339506326e+02 1.939824276620370540e+02 1.938802030285493743e+02 1.938550747492284074e+02 1.939221802662036964e+02 1.940472072723765393e+02 1.942236820023148312e+02 1.944120408950617502e+02 1.945931365740740659e+02 1.947601398533950601e+02 1.949363710455246803e+02 1.951171735146604931e+02 1.952972280092592712e+02 1.954494034529321027e+02 1.956341276041666788e+02 1.958197776813271673e+02 1.960265282600308581e+02 1.962456698495370233e+02 1.966932831790123259e+02 1.967613565779321050e+02 1.965563411458333576e+02 1.953023206018518465e+02 1.941378366126543256e+02 1.936163430748456733e+02 1.934180087770061789e+02 1.933348596643518533e+02 1.932586202739197745e+02 1.944720027970679155e+02 1.967850761959876422e+02 1.985446026234567967e+02 1.988398818479938086e+02 1.989418451003086545e+02 1.990192824074074167e+02 1.991236120756172738e+02 1.992750405092592700e+02 1.994411140046296396e+02 1.996345789930555554e+02 1.998299971064814997e+02 2.000133439429012299e+02 2.001908598572530877e+02 2.003675096450617445e+02 2.005400130208333280e+02 2.007214520640432340e+02 2.009088686342592496e+02 2.011004692322530900e+02 2.013211178626543187e+02 2.015420635609567910e+02 2.017768653549382805e+02 2.019323953510802312e+02 2.014407016782407425e+02 2.008460918209876525e+02 1.996211506558641986e+02 1.992790475501543312e+02 1.991642626350308660e+02 1.991589192708333371e+02 1.992164400077160451e+02 1.994461593364197540e+02 1.994376726466049377e+02 1.993674696180555657e+02 1.993258068094135922e+02 1.993761496913580231e+02 1.995104089506172897e+02 1.996950081983024745e+02 1.998982648533950623e+02 2.001164443479938200e+02 2.003325694444444309e+02 2.005476837384259454e+02 2.007472892554012276e+02 2.009290065586419871e+02 2.011186246141975289e+02 2.013389646026234345e+02 2.015367467206790195e+02 2.017383371913580277e+02 2.019620481288580436e+02 2.021727228009259250e+02 2.024097145061728327e+02 2.026190716628086363e+02 2.024700945216049490e+02 2.013318301504629630e+02 1.998455246913580083e+02 1.996480772569444468e+02 1.994421923225308717e+02 1.993367742091049593e+02 1.992528964120370176e+02 1.992242684220678939e+02 1.992668089313271764e+02 1.993264993248456847e+02 1.993067414158950612e+02 1.992492607060185321e+02 1.992306659915123248e+02 1.992633473186728281e+02 1.993407146990740557e+02 1.994861439043210112e+02 1.996630266203703741e+02 1.998576649305555577e+02 2.000478182870370176e+02 2.002381703317901440e+02 2.004410204475308603e+02 2.006164728009259193e+02 2.008025472608024700e+02 2.010008347800925890e+02 2.012186212384259250e+02 2.014493648726851802e+02 2.016958439429012344e+02 2.019220847800926038e+02 2.021798384452160633e+02 2.023947164351851882e+02 2.022820572916666890e+02 2.012673461612654364e+02 1.999798543595678950e+02 1.991352850115740694e+02 1.991048659336419746e+02 1.990775631751543244e+02 1.990433285108024677e+02 1.990263006365740921e+02 1.990646161265432283e+02 1.990723606288580072e+02 1.990156992669753038e+02 1.989464081790123373e+02 1.989340533371913580e+02 1.989989091435185173e+02 1.991390856481481535e+02 1.993167491319444196e+02 1.995145741705246962e+02 1.997433048804012117e+02 1.999551721643518647e+02 2.001677580054012253e+02 2.003583212770061550e+02 2.005348013117283870e+02 2.007324647955246917e+02 2.009172964891975255e+02 2.011225298996913580e+02 2.013450906635802369e+02 2.015570413773148175e+02 2.017819700038580493e+02 2.020287736304012469e+02 2.022618860918209975e+02 2.024090446566357855e+02 2.021257262731481319e+02 2.008622786458333280e+02 1.996551562500000045e+02 1.990810300925926128e+02 1.990715065586419712e+02 1.990903260030864317e+02 1.991234611304012390e+02 1.992028747106481319e+02 1.993009553433641941e+02 1.992248148148148061e+02 1.991656659915123555e+02 1.991731785300925992e+02 1.992772077546296146e+02 1.994306259645061914e+02 1.996393455825617309e+02 1.998452985146604988e+02 2.000526875964506246e+02 2.002745278742283972e+02 2.004770683834876479e+02 2.006509625771604988e+02 2.008218050733024711e+02 2.009959389467592814e+02 2.011833531057098696e+02 2.013755733989197552e+02 2.015910079089506155e+02 2.017999527391975221e+02 2.020441898148148141e+02 2.022677715084876695e+02 2.024759056712962888e+02 2.023364313271604829e+02 2.012941333912037010e+02 2.000848042052469111e+02 1.995375072337963047e+02 1.992244637345679052e+02 1.992688994984567898e+02 1.993401895254629608e+02 1.994504943094135854e+02 1.995516695601851893e+02 1.995683912037036976e+02 1.994866724537037044e+02 1.994089742476851939e+02 1.994000940393518420e+02 1.994724821566358059e+02 1.996212037037036851e+02 1.998004306520061846e+02 2.000005184220678984e+02 2.002291165123456835e+02 2.004204615162037157e+02 2.006002970679012378e+02 2.007720891203703673e+02 2.009516594328703718e+02 2.011054774305555384e+02 2.012848702739197506e+02 2.014729041280864124e+02 2.017063961226851916e+02 2.019562504822530968e+02 2.022440856481481433e+02 2.025339496527777783e+02 2.028249184992284029e+02 2.027513305362654421e+02 2.018814322916666697e+02 2.007379108796296237e+02 2.002890012538580322e+02 2.001396952160493754e+02 2.001537726658950760e+02 2.002128173225308672e+02 2.003565446566358048e+02 2.005102290702160417e+02 2.005337765239197552e+02 2.004659577546296418e+02 2.004032735339506246e+02 2.004003539737654478e+02 2.004952575231481262e+02 2.006770143711419507e+02 2.009212934027777919e+02 2.011724961419753015e+02 2.014117399691357946e+02 2.016410402199074099e+02 2.018493397955246849e+02 2.020188618827160383e+02 2.021753882137345784e+02 2.023127343749999909e+02 2.024585276813271548e+02 2.026373451967592700e+02 2.028159558256172943e+02 2.030385788001543119e+02 2.032677160493827273e+02 2.033524392361111097e+02 2.029182937885802573e+02 2.019227146026234436e+02 2.011446749614197529e+02 2.009309857253086307e+02 2.009059900655864226e+02 2.010165977044752879e+02 2.012112070794753151e+02 2.016040084876543119e+02 2.016098963155864112e+02 2.015224233217592769e+02 2.014192250192901383e+02 2.013800540123456813e+02 2.015575916280864135e+02 2.017279658564814895e+02 2.018977801890432033e+02 2.020851760223765439e+02 2.022902228009259034e+02 2.024961419753086602e+02 2.026780107060185117e+02 2.028601446759259090e+02 2.030170920138888846e+02 2.031990200617284188e+02 2.033905516975308672e+02 2.035643272569444662e+02 2.037378124999999898e+02 2.035994598765431931e+02 2.024970124421296305e+02 2.009127811535493890e+02 2.004389612268518590e+02 2.002479552469135626e+02 2.001826239390432249e+02 2.001548683449074133e+02 2.001574691358024722e+02 2.002139048032407231e+02 2.002360156249999932e+02 2.001593889853395183e+02 2.000532552083333258e+02 1.998393041087962843e+02 1.998856611689814997e+02 2.000155299961419928e+02 2.001883984374999841e+02 2.003560947145061846e+02 2.005692689043210066e+02 2.007659162808641895e+02 2.009526625192901292e+02 2.011205603780864237e+02 2.012555406057098821e+02 2.013798369984567955e+02 2.015200289351851950e+02 2.017075000000000102e+02 2.019077719907407413e+02 2.020713570601851643e+02 2.018852898341049240e+02 2.007851601080247121e+02 1.993904547646604897e+02 1.988845182291666731e+02 1.986946846064814736e+02 1.986269757908950453e+02 1.986047236689814781e+02 1.986391406250000102e+02 1.987228761574073985e+02 1.987257441165123453e+02 1.986391550925926026e+02 1.985388570601851939e+02 1.985195220871913762e+02 1.986038551311728497e+02 1.987625573881172727e+02 1.989528009259259136e+02 1.993829706790123453e+02 1.994775863233024893e+02 1.996212755594135899e+02 1.997788753858024791e+02 1.999514091435185321e+02 2.001141136188271616e+02 2.002743653549382543e+02 2.004700448495370324e+02 2.006973124035493754e+02 2.009404619984567830e+02 2.011906134259259034e+02 2.011849807098765552e+02 2.004232537615740739e+02 1.989391242283950874e+02 1.982755748456789888e+02 1.980763044945987588e+02 1.979982325424382736e+02 1.979920495756172727e+02 1.980714708719135899e+02 1.981887779706790127e+02 1.982402753665123498e+02 1.981940972222222115e+02 1.981216922260802562e+02 1.981110431134259500e+02 1.982005666473765473e+02 1.983851215277777840e+02 1.986187847222222160e+02 1.988612533757716108e+02 1.991077797067900974e+02 1.993431573109567978e+02 1.995632055362654569e+02 2.000508757716049502e+02 2.001321238425925912e+02 2.002910281635802505e+02 2.004588257137345693e+02 2.008952700617283824e+02 2.011375270061728600e+02 2.014043561921296259e+02 2.015254383680555748e+02 2.010869709683641986e+02 2.000810652970678802e+02 1.991629875578703661e+02 1.989161521026234709e+02 1.988584230324073872e+02 1.988976393711419917e+02 1.990392404513889062e+02 1.992269801311728372e+02 1.993228530092592621e+02 1.992808111496913455e+02 1.991936062885802414e+02 1.991489385609567933e+02 1.992048447145061800e+02 1.993252932098765484e+02 1.994854822530864169e+02 1.996773215663580174e+02 1.998810026041666674e+02 2.000710556520061800e+02 2.002212437307098867e+02 2.003701760223765405e+02 2.004712017746913659e+02 2.005941271219135729e+02 2.009079735725308637e+02 2.010022376543209646e+02 2.011448374807098674e+02 2.010519198495370290e+02 2.002146088927469236e+02 1.989444077932098764e+02 1.984669550540123453e+02 1.982609133873456813e+02 1.982056602044752935e+02 1.982438261959876797e+02 1.983773316936728293e+02 1.985359876543209907e+02 1.985518740354938245e+02 1.984711583719135888e+02 1.984109186921296271e+02 1.984416613618827228e+02 1.985466440007716074e+02 1.987369974922839617e+02 1.989469791666666652e+02 1.991835276813271776e+02 1.994056153549382771e+02 1.996266440007715914e+02 1.998303612075617366e+02 2.000198794367283881e+02 2.002094627700617195e+02 2.004066304976851995e+02 2.006366989776234391e+02 2.009081346450617502e+02 2.011100313464506257e+02 2.009019719328703673e+02 1.997338763503086341e+02 1.981254730902777794e+02 1.979356577932098560e+02 1.976953573495370335e+02 1.975401702353395024e+02 1.974156360918209998e+02 1.973613261959876581e+02 1.973963913001543062e+02 1.974116666666666617e+02 1.973565456211419757e+02 1.972827874228395046e+02 1.972860681905864055e+02 1.973762345679012356e+02 1.975279480131173102e+02 1.977293663194444662e+02 1.979651417824074144e+02 1.981805536265432295e+02 1.984146397569444389e+02 1.986413802083333167e+02 1.988741628086419553e+02 1.991171460262345647e+02 1.993497362075617332e+02 1.995875511188271503e+02 1.998670674189814633e+02 2.001715128279321050e+02 2.004500429205246803e+02 2.004551967592592518e+02 1.996271711033950567e+02 1.980805999228394967e+02 1.973075048225308592e+02 1.970320249807098776e+02 1.969238744212962899e+02 1.967104836998456676e+02 1.967176996527777817e+02 1.968119651813271673e+02 1.969134862075617320e+02 1.969227271412037226e+02 1.969511082175925765e+02 1.970566951195987713e+02 1.972333989197530855e+02 1.974447183641975414e+02 1.976868735532407300e+02 1.979569632523148357e+02 1.982190948109567898e+02 1.984714732831789945e+02 1.987076306905864271e+02 1.989389621913580299e+02 1.991486217206789888e+02 1.993679779128086409e+02 1.996248355516975153e+02 1.998890596064814815e+02 2.001653612075617445e+02 2.004277787422839481e+02 2.007265055941358014e+02 2.009962408371913511e+02 2.010535059799382793e+02 2.002747738233024677e+02 1.987333584104938211e+02 1.980384182098765393e+02 1.977599672067901224e+02 1.976548779899691226e+02 1.976084076003086238e+02 1.975118118248456938e+02 1.975814043209876445e+02 1.976807171103394865e+02 1.976927338927469293e+02 1.976826466049382702e+02 1.977158670910493754e+02 1.978295867091049445e+02 1.980130570023148096e+02 1.982455512152777715e+02 1.985111376350308774e+02 1.987697038966049377e+02 1.990376851851851825e+02 1.992918658371913807e+02 1.995352869405864169e+02 1.997926157407407288e+02 2.000510628858024802e+02 2.003161496913580493e+02 2.005822675540123612e+02 2.008720592206790059e+02 2.011533892746913637e+02 2.014399112654321016e+02 2.017181462191358037e+02 2.020126022376543062e+02 2.022732687114197745e+02 2.024311834490740694e+02 2.020106462191358219e+02 2.005968012152777931e+02 1.994635816936728645e+02 1.991744328703703673e+02 1.990563623649691465e+02 1.990298273533950635e+02 1.989522574266975425e+02 1.990171547067901088e+02 1.991132720871913762e+02 1.991242134452160428e+02 1.990489255401234345e+02 1.990039130015432249e+02 1.990490639467592757e+02 1.991828163580246951e+02 1.993764168595679109e+02 1.996107127700617241e+02 1.998410715663580390e+02 2.000754176311728543e+02 2.002909264081790184e+02 2.005051302083333269e+02 2.007086921296296396e+02 2.009074918016975460e+02 2.010990166859567978e+02 2.013228554205247178e+02 2.015409066358024575e+02 2.017767997685185151e+02 2.020297299382716005e+02 2.023052266589506303e+02 2.025676012731481421e+02 2.026944536072530809e+02 2.022019671103394955e+02 2.007207180748456778e+02 1.995419589120370176e+02 1.992446479552469043e+02 1.991276721643518499e+02 1.990971358989197597e+02 1.990939530285493788e+02 1.991927821180555611e+02 1.992451374421296464e+02 1.992637350501543381e+02 1.992187557870370540e+02 1.993108097029320902e+02 1.994771735146604783e+02 1.996869097222222251e+02 1.999342250192901247e+02 2.001972024498456619e+02 2.004378988233024756e+02 2.007249049961419871e+02 2.009663054591049445e+02 2.011915842013889062e+02 2.014294661458333167e+02 2.016711897183641895e+02 2.018692158564814747e+02 2.020784833140432113e+02 2.022957069830247008e+02 2.024997820216049433e+02 2.026962557870370176e+02 2.029550096450617502e+02 2.032172318672839424e+02 2.031763763503086295e+02 2.021657846257716074e+02 2.003112678433642202e+02 1.996360662615740864e+02 1.993804774305555441e+02 1.993847612847222024e+02 1.994811675347222319e+02 1.996169333526234482e+02 2.000637803819444400e+02 2.001420688657407538e+02 2.002011091820987474e+02 2.002256100501543017e+02 2.003049194637345636e+02 2.004564814814814895e+02 2.007253978587962990e+02 2.010598075810185321e+02 2.014461328124999966e+02 2.018763917824074099e+02 2.022770413773148164e+02 2.026228158757716074e+02 2.029427064043210009e+02 2.032294405864197699e+02 2.034803028549382589e+02 2.037387471064814690e+02 2.039718190586419553e+02 2.042205729166666686e+02 2.044890166859568126e+02 2.047480965470679166e+02 2.049945862268518511e+02 2.052648456790123248e+02 2.055211525848765461e+02 2.056925815007715812e+02 2.053049980709876650e+02 2.038605806327160508e+02 2.027624961419753049e+02 2.024452719907407356e+02 2.023016459297839731e+02 2.022743070023147993e+02 2.022916676311728281e+02 2.023977912808641975e+02 2.024681071566357957e+02 2.024518397955246769e+02 2.023320177469135785e+02 2.022430025077160565e+02 2.022424315200617286e+02 2.023247130594135683e+02 2.024986429398148005e+02 2.026863478973765496e+02 2.028956515239197529e+02 2.031121170910493845e+02 2.033135990547839640e+02 2.035016927083333371e+02 2.036770042438271560e+02 2.038440948109567898e+02 2.040267529899691397e+02 2.042260223765431988e+02 2.044062282986110972e+02 2.046110826581790150e+02 2.048438001543210021e+02 2.050989665316357957e+02 2.053240687692901076e+02 2.052397849151234652e+02 2.042575270061728645e+02 2.028904523533950623e+02 2.025087379436728554e+02 2.023577372685185196e+02 2.023477724729938245e+02 2.024221706211419871e+02 2.026009317129629608e+02 2.027930777391975425e+02 2.028585976080246951e+02 2.027561289544753151e+02 2.025747202932098787e+02 2.026572275270061709e+02 2.028169121334876479e+02 2.030226181520061743e+02 2.032553997878086420e+02 2.034865427276234584e+02 2.037221460262345545e+02 2.039381148726851904e+02 2.041351085069444196e+02 2.043193465470678802e+02 2.045030463927469100e+02 2.046811598186728531e+02 2.048440089699074065e+02 2.050035604745370392e+02 2.052255343364197699e+02 2.054314457947530741e+02 2.055493880208333337e+02 2.051222463348765359e+02 2.035025197723765302e+02 2.023405430169753174e+02 2.019791878858024745e+02 2.018746711033950874e+02 2.018339115547839526e+02 2.017977748842592405e+02 2.018283907214506314e+02 2.019101639660493674e+02 2.019345187114197699e+02 2.018687109374999977e+02 2.016077666859567898e+02 2.016537649498456801e+02 2.017845370370370404e+02 2.019644941165123555e+02 2.021709423225308626e+02 2.023856843171296305e+02 2.025926948302468986e+02 2.028195433063271764e+02 2.029978940007715948e+02 2.031736308834876752e+02 2.033574527391975266e+02 2.035564019097222115e+02 2.037384799382715812e+02 2.039572178819444446e+02 2.041900728202160451e+02 2.043935440779321198e+02 2.046606404320987735e+02 2.048436776620370381e+02 2.046517221257716130e+02 2.032663729745370347e+02 2.017763064236111177e+02 2.011269810956790138e+02 2.008566878858024722e+02 2.007108053626543267e+02 2.005449517746913557e+02 2.004045259452160508e+02 2.004171040702160269e+02 2.004760551697530957e+02 2.004695765817901076e+02 2.004056741898148175e+02 2.003622853973765245e+02 2.003806987847222274e+02 2.004847333140432113e+02 2.006506433256172954e+02 2.008624435763888698e+02 2.011206823881172738e+02 2.013975626929012321e+02 2.016641603973765484e+02 2.019208666087963024e+02 2.021442201967592496e+02 2.023365359760802562e+02 2.025481245177469134e+02 2.027576258680555554e+02 2.029854605516975425e+02 2.032508328510802471e+02 2.035153592785493686e+02 2.037943229166666583e+02 2.040246161265432079e+02 2.037604619984567762e+02 2.022870669367283938e+02 2.007396257716049490e+02 2.003689105902777783e+02 2.002308130787037044e+02 2.002039482060185378e+02 2.001461361882716119e+02 2.001405830439814792e+02 2.002121826774691442e+02 2.002700954861111029e+02 2.002358400848765427e+02 2.001701321373456892e+02 2.001486979166666629e+02 2.002372853973765245e+02 2.005024802276234652e+02 2.007953901427469248e+02 2.010536704282407356e+02 2.013539742476851870e+02 2.016552498070987838e+02 2.019143668016975255e+02
5.047824074074073764e+01 5.047824074074073764e+01 5.048576003086419917e+01 5.058258728780863578e+01 5.097854697145061209e+01 5.161976900077160479e+01 5.204773051697530661e+01 5.240548996913580737e+01 5.272131076388888715e+01 5.300892988040123299e+01 5.328157986111110489e+01 5.355854648919753203e+01 5.383133825231481495e+01 5.413398823302468799e+01 5.442463445216049678e+01 5.518853780864197489e+01 5.516395158179012270e+01 5.505210599922839521e+01 5.464972849151234868e+01 5.296316792052468969e+01 5.066494164737654415e+01 5.058604118441358111e+01 5.046670235339506405e+01 5.047307388117283722e+01 5.054787181712962507e+01 5.066967206790123868e+01 5.090109760802469197e+01 5.086311246141975317e+01 5.085199411651235124e+01 5.078490258487654785e+01 5.076119020061728548e+01 5.081234953703703638e+01 5.099782455632715994e+01 5.101888454861110489e+01 5.125642554012345897e+01 5.162770833333333798e+01 5.201952256944444031e+01 5.236651523919753259e+01 5.263026861496913256e+01 5.289841001157407874e+01 5.317501446759258954e+01 5.345821132330247138e+01 5.375351658950617662e+01 5.405648099922839833e+01 5.435541329089505780e+01 5.468750916280863805e+01 5.503413242669753203e+01 5.536184799382715482e+01 5.545738763503086233e+01 5.493724392361110631e+01 5.363582175925925810e+01 5.291632764274691425e+01 5.252703173225308575e+01 5.235984423225308149e+01 5.231723717206789814e+01 5.235712046682098730e+01 5.247388888888889369e+01 5.253460985725308774e+01 5.249826003086419490e+01 5.241754533179012299e+01 5.237928481867283637e+01 5.245403935185185418e+01 5.260068045910493595e+01 5.302590615354938564e+01 5.307786361882715909e+01 5.328121093749999915e+01 5.354901861496913540e+01 5.377705632716049422e+01 5.400749035493826966e+01 5.419682339891974721e+01 5.438447386188271793e+01 5.459075617283951232e+01 5.480871093750000256e+01 5.504740017361110915e+01 5.533886766975308547e+01 5.561589988425925668e+01 5.564807966820987417e+01 5.501348283179012100e+01 5.383159577546296504e+01 5.310187885802469054e+01 5.273092255015431817e+01 5.256614920910494249e+01 5.250963927469135939e+01 5.254099006558642060e+01 5.263410204475308518e+01 5.266304639274691368e+01 5.259508825231481666e+01 5.247863329475308802e+01 5.243529658564815321e+01 5.247591242283950663e+01 5.258530815972222427e+01 5.277852478780864232e+01 5.301624421296295964e+01 5.327562837577160337e+01 5.382859423225308149e+01 5.395048369984567671e+01 5.415275270061728463e+01 5.435601273148148493e+01 5.458076726466049422e+01 5.481591386959876644e+01 5.505123987268518704e+01 5.529929012345678530e+01 5.560336950231481268e+01 5.592559992283950976e+01 5.605188078703703525e+01 5.550818913966049450e+01 5.403547260802469054e+01 5.298316261574074559e+01 5.251833333333333798e+01 5.227877218364197631e+01 5.210673755787037464e+01 5.196124276620370352e+01 5.192906153549382964e+01 5.193808497299382054e+01 5.191382474922839663e+01 5.185018952546296589e+01 5.179418209876543244e+01 5.180097415123456983e+01 5.190105420524691482e+01 5.205653501157407703e+01 5.225685763888888857e+01 5.249029320987654756e+01 5.273665798611110489e+01 5.296828269675926038e+01 5.321371720679012185e+01 5.373857156635802568e+01 5.385508101851851848e+01 5.403727285879629250e+01 5.426578269675925981e+01 5.453630401234568126e+01 5.480905285493827250e+01 5.511849006558642117e+01 5.546802613811728833e+01 5.562938271604937768e+01 5.527051118827160536e+01 5.387479600694444315e+01 5.296244068287036555e+01 5.242888551311728662e+01 5.217810570987654017e+01 5.203708092206790070e+01 5.195576533564814525e+01 5.194183883101851507e+01 5.199346595293209816e+01 5.200049672067901696e+01 5.194314959490741046e+01 5.190046055169753458e+01 5.191725308641974834e+01 5.204403260030863976e+01 5.224332609953704321e+01 5.247031587577160394e+01 5.274271074459876019e+01 5.303574074074074218e+01 5.332700135030864175e+01 5.358028838734567501e+01 5.379985580632715880e+01 5.401692226080246684e+01 5.451475115740741018e+01 5.465223861882716250e+01 5.482518952546296731e+01 5.503606819058641975e+01 5.527915605709876701e+01 5.553874035493826966e+01 5.577531153549382736e+01 5.564676263503086773e+01 5.374896894290123583e+01 5.315155671296296447e+01 5.286223668981481438e+01 5.274968460648148749e+01 5.274897521219135399e+01 5.285616415895061948e+01 5.296647858796296049e+01 5.297014371141975886e+01 5.288309847608024938e+01 5.281003327546296333e+01 5.281452690972222541e+01 5.290838059413579941e+01 5.308958960262345528e+01 5.328599247685185247e+01 5.352565972222222257e+01 5.375214843749999716e+01 5.394837673611110773e+01 5.414993730709876019e+01 5.437160783179012213e+01 5.461295717592592780e+01 5.484307098765432187e+01 5.510094376929012583e+01 5.569314139660493623e+01 5.585872010030864487e+01 5.607788194444444940e+01 5.626195987654320874e+01 5.598549864969135825e+01 5.454470823688271963e+01 5.308622926311728207e+01 5.235608024691357798e+01 5.201866078317901554e+01 5.180725694444444684e+01 5.160399787808642458e+01 5.147100935570987446e+01 5.143417727623457125e+01 5.140673273533951004e+01 5.131297935956789757e+01 5.120016975308642060e+01 5.116248505015432357e+01 5.121750192901235010e+01 5.136014564043210129e+01 5.155975839120370097e+01 5.177181134259259210e+01 5.200796151620370011e+01 5.220577112268518505e+01 5.242668016975308376e+01 5.266753375771604340e+01 5.289469280478395063e+01 5.309491367669753004e+01 5.332852912808641577e+01 5.357000578703703297e+01 5.383981385030863720e+01 5.412581114969135854e+01 5.482686583719136308e+01 5.495267602237654359e+01 5.477603684413580254e+01 5.350675781249999829e+01 5.199029417438271850e+01 5.119497299382715738e+01 5.084395929783951118e+01 5.066336419753086773e+01 5.052335069444444571e+01 5.151654513888888687e+01 5.345395785108024711e+01 5.498667582947530974e+01 5.510826195987654330e+01 5.510953028549382537e+01 5.513059654706790269e+01 5.520136236496913540e+01 5.535883680555555486e+01 5.555280912422839634e+01 5.578843846450617150e+01 5.601874517746913540e+01 5.627159191743827193e+01 5.649930989583332774e+01 5.673631269290122958e+01 5.695571277006173005e+01 5.718659239969135655e+01 5.744310860339506064e+01 5.769603636188271167e+01 5.797880256558642031e+01 5.827758535879630131e+01 5.860286313657407220e+01 5.884787229938271480e+01 5.838154947916667226e+01 5.768350790895062374e+01 5.612077064043209873e+01 5.556347415123457267e+01 5.531077015817901099e+01 5.522918740354938194e+01 5.524682870370369869e+01 5.546710262345678899e+01 5.547594521604938222e+01 5.540338204089506036e+01 5.534831693672839492e+01 5.538903018904321129e+01 5.552255883487654131e+01 5.574014949845678757e+01 5.599414448302469083e+01 5.626168113425925554e+01 5.656525270061728605e+01 5.684241512345678871e+01 5.711821903935184963e+01 5.738091290509259323e+01 5.763402054398147811e+01 5.791044319058642031e+01 5.818432098765431704e+01 5.846867235725308376e+01 5.877464265046295822e+01 5.908692997685185588e+01 5.942095534336419149e+01 5.974516830632715880e+01 5.965462239583333570e+01 5.849438464506172863e+01 5.598639226466048768e+01 5.575480709876543273e+01 5.549086757330246655e+01 5.535552372685184963e+01 5.525237606095679155e+01 5.518425009645061863e+01 5.522261140046295935e+01 5.525784818672839549e+01 5.525020640432098418e+01 5.518870177469135996e+01 5.516482301311728520e+01 5.520407407407407874e+01 5.530464602623456472e+01 5.547502652391975886e+01 5.568906298225308404e+01 5.595089023919752691e+01 5.620122058256173148e+01 5.646755304783950180e+01 5.673484857253086489e+01 5.698851032021605079e+01 5.724202353395061493e+01 5.751384066358024683e+01 5.782913097993827023e+01 5.814442708333333343e+01 5.848741801697531173e+01 5.880471402391975744e+01 5.916531394675926236e+01 5.947644434799382651e+01 5.940724151234567785e+01 5.837687644675926180e+01 5.672644048996913568e+01 5.501436535493827051e+01 5.498279320987654017e+01 5.496864872685185333e+01 5.494164689429012327e+01 5.493690007716049450e+01 5.498578269675925867e+01 5.503627748842592382e+01 5.498068287037036583e+01 5.491785638503086631e+01 5.489531684027777203e+01 5.496571469907407703e+01 5.511183738425926038e+01 5.531888840663580709e+01 5.556657841435185219e+01 5.585181761188271565e+01 5.614237702546296305e+01 5.643320119598765672e+01 5.669525318287036697e+01 5.695991898148148636e+01 5.722234133873456585e+01 5.748379967206790297e+01 5.775306761188271309e+01 5.804525462962963189e+01 5.833653452932098560e+01 5.865328993055555173e+01 5.900037905092592894e+01 5.934624710648148493e+01 5.958705005787037123e+01 5.934695939429012412e+01 5.796615065586419746e+01 5.637342640817901440e+01 5.493384066358024853e+01 5.493793643904320589e+01 5.498158323688271309e+01 5.503268952546296333e+01 5.512552517361110915e+01 5.524309317129629449e+01 5.521461709104938365e+01 5.515818287037037493e+01 5.515903260030864175e+01 5.526902199074073962e+01 5.544661072530864487e+01 5.570797839506172977e+01 5.598044270833333513e+01 5.625914882330246769e+01 5.654387972608024882e+01 5.681193817515431732e+01 5.704974199459876161e+01 5.730315248842592268e+01 5.753994116512345869e+01 5.780794126157407220e+01 5.806584780092592268e+01 5.837083140432098816e+01 5.865478202160493737e+01 5.898044463734568410e+01 5.931317418981481637e+01 5.962386284722222030e+01 5.954349537037036555e+01 5.847982880015432272e+01 5.687491222993826767e+01 5.606726273148148465e+01 5.508353780864197802e+01 5.515478732638888459e+01 5.525202015817901469e+01 5.540120949074074019e+01 5.555522810570987957e+01 5.560625482253086460e+01 5.553303722993827307e+01 5.545041956018518192e+01 5.542870611496913114e+01 5.551099344135802482e+01 5.568777922453703155e+01 5.589775511188271651e+01 5.616491946373457012e+01 5.645812258873456813e+01 5.672083043981481154e+01 5.697386332947530718e+01 5.722556712962963132e+01 5.746106047453703525e+01 5.769657986111111114e+01 5.794214602623456756e+01 5.819376784336419917e+01 5.851688705632716392e+01 5.884955488040123583e+01 5.925648437499999943e+01 5.967705488040122930e+01 6.012894386574074446e+01 6.011783516589505894e+01 5.923675057870370608e+01 5.778047164351852416e+01 5.703829427083333314e+01 5.671695071373456898e+01 5.627594087577160309e+01 5.639741898148148636e+01 5.661448350694444542e+01 5.683067756558642003e+01 5.693438368055555543e+01 5.688819299768518079e+01 5.682136477623456727e+01 5.681887586805555657e+01 5.692466049382716164e+01 5.713309076003086773e+01 5.743363859953704065e+01 5.776694926697530974e+01 5.809109037422839350e+01 5.841801697530864601e+01 5.871435088734567387e+01 5.896953703703703553e+01 5.918795814043209447e+01 5.939104021990740989e+01 5.957563753858025279e+01 5.982853250385802113e+01 6.009106143904320874e+01 6.039665412808641776e+01 6.073923707561728236e+01 6.092414689429012498e+01 6.050498890817901554e+01 5.932750096450617150e+01 5.829436101466049536e+01 5.786425395447530917e+01 5.773036024305555713e+01 5.776753713348765018e+01 5.794178626543209987e+01 5.837413773148148266e+01 5.842763888888888602e+01 5.836696421682098901e+01 5.824677806712962536e+01 5.820639226466049365e+01 5.836395833333332916e+01 5.856593846450616780e+01 5.879978587962963132e+01 5.905883198302469594e+01 5.935014178240740534e+01 5.964113763503085863e+01 5.991429928626543244e+01 6.017439429012345897e+01 6.039665412808641776e+01 6.065978105709876900e+01 6.092735146604938024e+01 6.117862075617284034e+01 6.144496527777777573e+01 6.135989776234568183e+01 6.019278549382715937e+01 5.813134355709876644e+01 5.731869646990740819e+01 5.691379581404321186e+01 5.670969039351851393e+01 5.662090615354937739e+01 5.659309751157407220e+01 5.662597318672839464e+01 5.663852430555555628e+01 5.655912471064814895e+01 5.642771653163580226e+01 5.598026957947531201e+01 5.605563946759259153e+01 5.624380594135802625e+01 5.645975597993827222e+01 5.671916763117283722e+01 5.699246961805555856e+01 5.725830391589506263e+01 5.752625048225308291e+01 5.775618875385802653e+01 5.794783950617284063e+01 5.812701195987654756e+01 5.832168740354938308e+01 5.856724199459876701e+01 5.882851128472222513e+01 5.907823784722221916e+01 5.893446469907407703e+01 5.778986400462962791e+01 5.597124228395061607e+01 5.517475549768518306e+01 5.483714650848765615e+01 5.466384789737654160e+01 5.458658082561728264e+01 5.458327932098764990e+01 5.466507282021605363e+01 5.466310570987654671e+01 5.457033805941357940e+01 5.446474826388888602e+01 5.443379629629629335e+01 5.450193383487653875e+01 5.467133825231481126e+01 5.489102816358024484e+01 5.546766975308641889e+01 5.560066599151234357e+01 5.579837143132715482e+01 5.600629388503086403e+01 5.623360821759258954e+01 5.643746720679012441e+01 5.666026089891975204e+01 5.692633535879629392e+01 5.720643422067901440e+01 5.753054591049382793e+01 5.787516493055555600e+01 5.793679639274691340e+01 5.719418692129629989e+01 5.547140625000000114e+01 5.450177228009259522e+01 5.408879340277777459e+01 5.390012731481481012e+01 5.383565007716049422e+01 5.388230709876543756e+01 5.400261188271604595e+01 5.405785300925925441e+01 5.401983699845678899e+01 5.393796874999999602e+01 5.391519772376543074e+01 5.399637152777778226e+01 5.418088734567901099e+01 5.445398823302468827e+01 5.474494839891975317e+01 5.506951485339506291e+01 5.539096498842592808e+01 5.568409336419752975e+01 5.641375626929012554e+01 5.653423804012345499e+01 5.673151620370370551e+01 5.695635754243826909e+01 5.748979214891974721e+01 5.782663676697530519e+01 5.819493489583333456e+01 5.838393952546296362e+01 5.798337770061728946e+01 5.686931857638888488e+01 5.568182918595678643e+01 5.523395543981481381e+01 5.506271026234567501e+01 5.505722125771605135e+01 5.517412663966049280e+01 5.537055507330246940e+01 5.548910445601851649e+01 5.545586950231481893e+01 5.536955246913580453e+01 5.532351224922839350e+01 5.538062355324074559e+01 5.552318431712962621e+01 5.570322868441358111e+01 5.593605179398147698e+01 5.619593701774691397e+01 5.645289158950617292e+01 5.666424913194444457e+01 5.686292341820987417e+01 5.702035059799382566e+01 5.720006558641975403e+01 5.769130160108024796e+01 5.783084249614197603e+01 5.804232060185185560e+01 5.798221981095678501e+01 5.712147810570987616e+01 5.562303819444444031e+01 5.485953076774691084e+01 5.449031587577160707e+01 5.435171826774691084e+01 5.434414207175925782e+01 5.444813223379629363e+01 5.459387393904321328e+01 5.463435715663580083e+01 5.455878809799382623e+01 5.448136863425926180e+01 5.449942226080247565e+01 5.461532889660493595e+01 5.482987606095678501e+01 5.508876784336419519e+01 5.538745949074074559e+01 5.566419270833333144e+01 5.595689332561728691e+01 5.622302372685184935e+01 5.647255304783950436e+01 5.670982397762345784e+01 5.695723572530864232e+01 5.724771604938271707e+01 5.759285783179012697e+01 5.787185667438271963e+01 5.771966242283951232e+01 5.649734809027778226e+01 5.396870659722222285e+01 5.374766107253086744e+01 5.347613474151233959e+01 5.329926263503086403e+01 5.314407069830246400e+01 5.308073350694444059e+01 5.310963879243827535e+01 5.313187065972221745e+01 5.307199411651235010e+01 5.300253616898147868e+01 5.299583188657407362e+01 5.309676890432098872e+01 5.326490740740740648e+01 5.349432773919753004e+01 5.376013695987654017e+01 5.403218267746913739e+01 5.430765866126543528e+01 5.459058111496914023e+01 5.488691695601852416e+01 5.516836660879629761e+01 5.546552951388888886e+01 5.576798128858024484e+01 5.613628472222222143e+01 5.651578944830247053e+01 5.687985966435184793e+01 5.695534818672839350e+01 5.613823013117283978e+01 5.432485773533950635e+01 5.324196277006173261e+01 5.280906635802468685e+01 5.260528115354937739e+01 5.204710262345679439e+01 5.208215856481481154e+01 5.219566454475308603e+01 5.231713348765431704e+01 5.237159191743826625e+01 5.241082995756173091e+01 5.253068576388888999e+01 5.273327449845678672e+01 5.299767602237654529e+01 5.329064573688271622e+01 5.363989293981481410e+01 5.397229407793209788e+01 5.430788628472222257e+01 5.461579234182099185e+01 5.491596450617284120e+01 5.519888261959876274e+01 5.550525704089506007e+01 5.581844232253086346e+01 5.614292920524691510e+01 5.651802035108025279e+01 5.687143952546296077e+01 5.726743055555555628e+01 5.761954427083333030e+01 5.774831983024691340e+01 5.699211226851851819e+01 5.518596305941358082e+01 5.421040461033950209e+01 5.373877555941357542e+01 5.353000289351851393e+01 5.340378858024691056e+01 5.303206404320987843e+01 5.311760464891975886e+01 5.327316309799382310e+01 5.331824797453703724e+01 5.332199797453703383e+01 5.336466386959877184e+01 5.348265239197530718e+01 5.368810956790123612e+01 5.398141107253086091e+01 5.430815972222222143e+01 5.463674672067900673e+01 5.497883150077160508e+01 5.532150511188271480e+01 5.565402777777777743e+01 5.598101273148148493e+01 5.631079234182099214e+01 5.666170138888888630e+01 5.701960021219135655e+01 5.741383053626543642e+01 5.777952642746913625e+01 5.815490981867284148e+01 5.853458188657407391e+01 5.893685763888888829e+01 5.931245852623456472e+01 5.956031057098765302e+01 5.917715277777777771e+01 5.760022521219136138e+01 5.604098138503086091e+01 5.551476080246913369e+01 5.525193865740740762e+01 5.513865451388888772e+01 5.482278935185185276e+01 5.492446035879629562e+01 5.504703462577160167e+01 5.507955391589506178e+01 5.501431664737654614e+01 5.496898919753085977e+01 5.501904947916666799e+01 5.516835503472222513e+01 5.540539351851851535e+01 5.569577160493827250e+01 5.600666956018518761e+01 5.632330777391975118e+01 5.662209442515431590e+01 5.690932677469135825e+01 5.718701774691357542e+01 5.745337577160493936e+01 5.771436439043210243e+01 5.800084635416666856e+01 5.829923032407407391e+01 5.861980179398148749e+01 5.896852719907407447e+01 5.934408950617284262e+01 5.971224199459876303e+01 5.993055025077160280e+01 5.948739052854937626e+01 5.779447675540123441e+01 5.617102430555555515e+01 5.564339216820987843e+01 5.538816020447530519e+01 5.529199363425926350e+01 5.523464361496913710e+01 5.518232108410493453e+01 5.528058834876543415e+01 5.531945746527777885e+01 5.528790895061728605e+01 5.538414014274691510e+01 5.557262249228394779e+01 5.582600646219135854e+01 5.614126639660494078e+01 5.650524980709876388e+01 5.682377266589505638e+01 5.719102961033950550e+01 5.750956066743827222e+01 5.782889226466048882e+01 5.815771315586419377e+01 5.848543065200617264e+01 5.876325424382716278e+01 5.906508439429012469e+01 5.937756847993826881e+01 5.969563753858025024e+01 5.999925106095679439e+01 6.038164689429012100e+01 6.075178385416666060e+01 6.076440152391975857e+01 5.975119936342592553e+01 5.746493730709876502e+01 5.639787615740740989e+01 5.593864052854938507e+01 5.582362750771604709e+01 5.586558015046296077e+01 5.597460792824073650e+01 5.637725019290122930e+01 5.650401957947531173e+01 5.662255931712962820e+01 5.667990740740741273e+01 5.676222270447531315e+01 5.694702015817900786e+01 5.725698206018518732e+01 5.768578559027777430e+01 5.820066261574073962e+01 5.878478443287036725e+01 5.931476466049382879e+01 5.980608121141975886e+01 6.025870997299382736e+01 6.069928288966049479e+01 6.107049334490740478e+01 6.143519772376542676e+01 6.179196903935185503e+01 6.216226562499999631e+01 6.258195408950617633e+01 6.299620370370369926e+01 6.338138840663579998e+01 6.379029513888889369e+01 6.418148485725308205e+01 6.449358940972223309e+01 6.416160445601850881e+01 6.240145302854938336e+01 6.076158564814814866e+01 6.013073736496913568e+01 5.982171585648148238e+01 5.967990354938271480e+01 5.963494936342593178e+01 5.956596354166666885e+01 5.969226080246913568e+01 5.972542148919752947e+01 5.961918354552469168e+01 5.951324363425926123e+01 5.950339168595678530e+01 5.958830439814814639e+01 5.978444830246913710e+01 6.003285108024691397e+01 6.031950761959876672e+01 6.063297550154320703e+01 6.092351562500000739e+01 6.119820457175926265e+01 6.146671874999999119e+01 6.172318962191357627e+01 6.200285686728395262e+01 6.229177999614196892e+01 6.257353780864198001e+01 6.287962528935185702e+01 6.322908323688271537e+01 6.362041377314815094e+01 6.397459442515432215e+01 6.397693142361111285e+01 6.296641637731481467e+01 6.115761429398148152e+01 6.046205777391975289e+01 6.011180844907407561e+01 5.999210985725308376e+01 5.999409673996913739e+01 6.015728105709876417e+01 6.038748263888888346e+01 6.048914882330247167e+01 6.040267361111110489e+01 6.016353732638889085e+01 6.024056086033950663e+01 6.040720968364198029e+01 6.065274980709877184e+01 6.097706114969135882e+01 6.128536361882715511e+01 6.163990403163580822e+01 6.196083381558641179e+01 6.227825086805555799e+01 6.256030189043209333e+01 6.283978732638888687e+01 6.310008005401234499e+01 6.336873553240740620e+01 6.364096932870370438e+01 6.396981143904320533e+01 6.431186246141975005e+01 6.455708478009259466e+01 6.415225742669753117e+01 6.222018132716049621e+01 6.049964602623456500e+01 5.978924527391975374e+01 5.947225646219136053e+01 5.933178674768518590e+01 5.921835214120370239e+01 5.920179205246913767e+01 5.927074218750000512e+01 5.928713252314815207e+01 5.920011381172839293e+01 5.872057677469135939e+01 5.878211033950617548e+01 5.895254726080247565e+01 5.917746286651235010e+01 5.945293547453703553e+01 5.974978539737654160e+01 6.004857108410494249e+01 6.036454234182098588e+01 6.063744743441358054e+01 6.089215663580246485e+01 6.113951003086420144e+01 6.140095052083333371e+01 6.166302565586419604e+01 6.197031008873456415e+01 6.228630160108025393e+01 6.259761815200617008e+01 6.299107156635801630e+01 6.331102719907407561e+01 6.319045428240740847e+01 6.163821084104938564e+01 5.950484182098765018e+01 5.848649498456789786e+01 5.801220293209876644e+01 5.773407503858024370e+01 5.744642168209876587e+01 5.723762731481480870e+01 5.720018663194444031e+01 5.725081307870370750e+01 5.724410590277778255e+01 5.717070457175925924e+01 5.711702787422839833e+01 5.699576581790123697e+01 5.714470679012345755e+01 5.736790798611110631e+01 5.765015094521604766e+01 5.799518566743827108e+01 5.835661168981481239e+01 5.872304687500000142e+01 5.907195505401234215e+01 5.939555603780864601e+01 5.968407696759258840e+01 5.997530237268518505e+01 6.027088107638888914e+01 6.060470630787036583e+01 6.099589265046295594e+01 6.138341820987653819e+01 6.180068287037037322e+01 6.216850501543209617e+01 6.197073254243827023e+01 6.029997347608024683e+01 5.820231047453704321e+01 5.752401331018518249e+01 5.722704185956789757e+01 5.711294415509259181e+01 5.702007330246913597e+01 5.697137538580246741e+01 5.705377845293209305e+01 5.711901957947530661e+01 5.710316406249999943e+01 5.703618634259259323e+01 5.700615547839506547e+01 5.710589699074073877e+01 5.742727623456790553e+01 5.785847173996913995e+01 5.817870370370370381e+01 5.857922453703703525e+01 5.899282889660494078e+01 5.934398389274691255e+01
3.351347897376542928e+00 3.351347897376542928e+00 3.344304591049382935e+00 3.110958719135802575e+00 2.340898437499999929e+00 2.216397087191357862e+00 2.296899594907407582e+00 2.390009162808641729e+00 2.460991512345679144e+00 2.526846547067901128e+00 2.581423611111111072e+00 2.609848090277778088e+00 2.639949845679012697e+00 2.677675057870370079e+00 2.697637924382715990e+00 2.723116319444444322e+00 2.707503375771604937e+00 2.701785783179011968e+00 2.685788966049382775e+00 2.594182581018518619e+00 2.473076774691358004e+00 2.490463445216049454e+00 2.469230806327160632e+00 2.474454571759259203e+00 2.492852044753086194e+00 2.522129629629629832e+00 2.563741801697530853e+00 2.551724537037037166e+00 2.545824170524691343e+00 2.524683641975308479e+00 2.521891878858024683e+00 2.550267168209876534e+00 2.563480420524691272e+00 2.561670042438271455e+00 2.537730999228394957e+00 2.526397087191358359e+00 2.573708526234567806e+00 2.614617091049382669e+00 2.634683159722222001e+00 2.654160879629629655e+00 2.684246720679012377e+00 2.699536554783950937e+00 2.717298900462963296e+00 2.728957851080247021e+00 2.739342206790123413e+00 2.761573591820987605e+00 2.768765914351852153e+00 2.771932388117284152e+00 2.759974922839506295e+00 2.653039641203703614e+00 2.635548321759259238e+00 2.556054205246913735e+00 2.516046006944444358e+00 2.510809702932098819e+00 2.524211998456789896e+00 2.560949556327160703e+00 2.602238136574074101e+00 2.631298707561728456e+00 2.614633005401234556e+00 2.593653549382715973e+00 2.589004629629629850e+00 2.628858989197531137e+00 2.686816165123457001e+00 2.614447820216049490e+00 2.603681037808641907e+00 2.636440972222222179e+00 2.686345486111111125e+00 2.707431037808642138e+00 2.732711709104937992e+00 2.739418885030864281e+00 2.738098476080247146e+00 2.750561342592592329e+00 2.760064139660493687e+00 2.765506847993827400e+00 2.768490065586419746e+00 2.779034047067901358e+00 2.763074845679012181e+00 2.660103684413580361e+00 2.614072145061728136e+00 2.538424961419752712e+00 2.503951581790123448e+00 2.501585165895062079e+00 2.513022762345678895e+00 2.548089795524691503e+00 2.598446180555555429e+00 2.614596836419752712e+00 2.589839891975308728e+00 2.561918402777777715e+00 2.554707754629629513e+00 2.590691068672839492e+00 2.640756172839506366e+00 2.704906442901234609e+00 2.749829282407407760e+00 2.769973476080247021e+00 2.577501446759259185e+00 2.602287808641975175e+00 2.656936728395062008e+00 2.700483217592592577e+00 2.732748360339506188e+00 2.766973861882715990e+00 2.774998553240740851e+00 2.776839795524691290e+00 2.782354359567901447e+00 2.779948398919752872e+00 2.776622781635802450e+00 2.672603202160494185e+00 2.630628375771604688e+00 2.553449556327160419e+00 2.500516010802468880e+00 2.476199363425926059e+00 2.468244116512345432e+00 2.465409432870370399e+00 2.484952256944444215e+00 2.513451967592592595e+00 2.525350115740740975e+00 2.515298514660493812e+00 2.506326195987654160e+00 2.525705536265431927e+00 2.578470775462962994e+00 2.649824942129629601e+00 2.704310378086419497e+00 2.747728587962963154e+00 2.773434124228395081e+00 2.784672550154321247e+00 2.770034239969135559e+00 2.562499035493826849e+00 2.596389371141975211e+00 2.644333043981481168e+00 2.704578993055555713e+00 2.762609471450617527e+00 2.781349826388888946e+00 2.787194251543209766e+00 2.797755594135802326e+00 2.782269965277777590e+00 2.685336130401234200e+00 2.649617091049382811e+00 2.548968460648148415e+00 2.495830439814814561e+00 2.478556616512345823e+00 2.471585165895061831e+00 2.468373842592592737e+00 2.492580536265431856e+00 2.538566743827160632e+00 2.558108603395061742e+00 2.547727141203703471e+00 2.540189525462962727e+00 2.575081500771605025e+00 2.629308931327160703e+00 2.703953028549382687e+00 2.744075038580247039e+00 2.761931905864197567e+00 2.775606192129629335e+00 2.774187403549382758e+00 2.783563368055555376e+00 2.774830729166666288e+00 2.762088155864197425e+00 2.591064332561728634e+00 2.627177854938271384e+00 2.688147183641975246e+00 2.745060281635802735e+00 2.782536651234567504e+00 2.800525655864197550e+00 2.811833526234567504e+00 2.751616030092592702e+00 2.602255979938271402e+00 2.544516300154321176e+00 2.520419560185185315e+00 2.524069733796296511e+00 2.555953414351851638e+00 2.608389756944444304e+00 2.653925540123456717e+00 2.659872202932098695e+00 2.622684220679011968e+00 2.601593364197530622e+00 2.614499421296296422e+00 2.664206211419752890e+00 2.740765817901234414e+00 2.778831500771604901e+00 2.799655189043209536e+00 2.789670138888888928e+00 2.787910397376543337e+00 2.789080343364197745e+00 2.778215181327160721e+00 2.778974729938271881e+00 2.780962094907407423e+00 2.787295524691358217e+00 2.632515914351851727e+00 2.668507426697531049e+00 2.746158371913580254e+00 2.797505304783950653e+00 2.701153549382715902e+00 2.622148919753086282e+00 2.506656539351852064e+00 2.459677854938271402e+00 2.443845968364197319e+00 2.431805073302469200e+00 2.434581404320987463e+00 2.435768711419753263e+00 2.457815393518518743e+00 2.472696277006172672e+00 2.458666087962963154e+00 2.444947916666666554e+00 2.459545235339505975e+00 2.503390239197531120e+00 2.569019097222222214e+00 2.644865933641975086e+00 2.705175540123456734e+00 2.731519579475308657e+00 2.750387249228395170e+00 2.767164834104938187e+00 2.770077160493827240e+00 2.761108217592592506e+00 2.737768132716049241e+00 2.737513020833333144e+00 2.747618152006172654e+00 2.764978298611111107e+00 2.766868730709876711e+00 2.610203993055555394e+00 2.642326388888888822e+00 2.586351755401234520e+00 2.532323495370370381e+00 2.435480806327160241e+00 2.392125289351851869e+00 2.385452835648148362e+00 2.378750964506172849e+00 2.384371141975308639e+00 2.578634259259259487e+00 2.739427565586419977e+00 2.817935956790123431e+00 2.845682870370370487e+00 2.842994309413580112e+00 2.856413001543209873e+00 2.877684220679012306e+00 2.913708043981481310e+00 2.937648051697530960e+00 2.935692033179012395e+00 2.933053144290123537e+00 2.929668209876543195e+00 2.934794077932098677e+00 2.951473765432098606e+00 2.948215181327160650e+00 2.964266010802469431e+00 2.988852719907407529e+00 2.988076774691358128e+00 3.003381076388889070e+00 3.001371527777777715e+00 3.007762827932098926e+00 3.013245081018518512e+00 2.851057581018518583e+00 2.783447145061728634e+00 2.672728105709876623e+00 2.614347993827160543e+00 2.603076774691357897e+00 2.630579668209876321e+00 2.666491608796296209e+00 2.795632233796296440e+00 2.807555459104938311e+00 2.780779320987654568e+00 2.758501639660493776e+00 2.786566840277777679e+00 2.857666859567900897e+00 2.912263213734568090e+00 2.939779128086419835e+00 2.942793209876543248e+00 2.941613136574074083e+00 2.947199074074073888e+00 2.967269000771604937e+00 2.981838831018518654e+00 2.982274305555555394e+00 2.991374421296296049e+00 3.013342978395061600e+00 3.037277681327160472e+00 3.042447434413580343e+00 3.025079089506172991e+00 3.036338734567901376e+00 3.037895929783950510e+00 2.989520640432098642e+00 2.908054591049382687e+00 2.769770447530864210e+00 2.668298128858024754e+00 2.626435667438271615e+00 2.627895929783950368e+00 2.628376736111111001e+00 2.642821662808642280e+00 2.687672164351851745e+00 2.729708236882715688e+00 2.736671489197530782e+00 2.727785493827160401e+00 2.728816068672839545e+00 2.758340084876543141e+00 2.806170910493826831e+00 2.872127218364197265e+00 2.920481770833333712e+00 2.952226080246913575e+00 2.971128954475308337e+00 2.988804494598765071e+00 2.993705632716049170e+00 2.981576485339506366e+00 2.982459972993827257e+00 2.975568094135802255e+00 2.995135030864197745e+00 2.995901813271605096e+00 3.015496720679012199e+00 3.026493055555555589e+00 3.041644965277777946e+00 3.056271701388888928e+00 3.010537229938271775e+00 2.905710841049382598e+00 2.757534722222222179e+00 2.739092399691358093e+00 2.698286554783950741e+00 2.695748456790123537e+00 2.698788097993827240e+00 2.709757426697530835e+00 2.738629436728395206e+00 2.773611593364197603e+00 2.763195408950617438e+00 2.749221643518518832e+00 2.751749614197530835e+00 2.791861496913580432e+00 2.849999517746913735e+00 2.899197048611111160e+00 2.932092978395061778e+00 2.937916666666666288e+00 2.937392457561728509e+00 2.940517939814814685e+00 2.938892264660494025e+00 2.949490258487654337e+00 2.965811631944444304e+00 2.977427662037036793e+00 3.005835744598765569e+00 3.018930844907407263e+00 3.035450424382716061e+00 3.042582465277777537e+00 3.055213638117284081e+00 3.058774594907407440e+00 3.061853780864197461e+00 2.971979648919753192e+00 2.894694733796296049e+00 2.762327835648148433e+00 2.732552083333333215e+00 2.710512635030864370e+00 2.724034529320987552e+00 2.744875578703703578e+00 2.783759645061728349e+00 2.831213831018518423e+00 2.808843557098765320e+00 2.793209876543209624e+00 2.795793788580247075e+00 2.843269675925925721e+00 2.894055748456790145e+00 2.932229938271604830e+00 2.937257426697530871e+00 2.929611786265431839e+00 2.941019000771604830e+00 2.945063175154321033e+00 2.960746527777777803e+00 2.977199556327160490e+00 2.996153549382715831e+00 3.000809220679012235e+00 3.007747395833333393e+00 3.029604552469135736e+00 3.031790123456790109e+00 3.047333622685185262e+00 3.039633487654321176e+00 3.047912808641975335e+00 2.999536072530863962e+00 2.929773341049382473e+00 2.781687885802468951e+00 2.684082272376543177e+00 2.723888406635802450e+00 2.721448688271604688e+00 2.757275270061728456e+00 2.813874903549382633e+00 2.851848958333333073e+00 2.867857831790123768e+00 2.842516878858024842e+00 2.800398823302469253e+00 2.795545910493827169e+00 2.834878954475308799e+00 2.897588252314814650e+00 2.931179108796296173e+00 2.960233410493827488e+00 2.966233603395061813e+00 2.955763406635802504e+00 2.959172935956789985e+00 2.968438464506172991e+00 2.975710358796296529e+00 2.995227623456790056e+00 3.013178530092592400e+00 3.029293016975308728e+00 3.039174864969135914e+00 3.033797743055555607e+00 3.028569155092592613e+00 3.017580536265431768e+00 3.053054591049382704e+00 3.038926022376543301e+00 2.923494405864197176e+00 2.851359471450617189e+00 2.759860628858024967e+00 2.731904899691357969e+00 2.767487943672839457e+00 2.785327932098765391e+00 2.852162422839506384e+00 2.914929591049382651e+00 2.931653645833333321e+00 2.901229263117284241e+00 2.872510609567901163e+00 2.874392843364197425e+00 2.925269579475308745e+00 2.977759934413580112e+00 2.997745466820987303e+00 2.996238908179012395e+00 2.992764274691357862e+00 2.993960262345678913e+00 3.001839313271605025e+00 3.020732542438271384e+00 3.047489390432098766e+00 3.066475212191357880e+00 3.076423611111111178e+00 3.085244502314814952e+00 3.084696180555555944e+00 3.079992766203703880e+00 3.076707175925926130e+00 3.077943672839506206e+00 2.967983217592592649e+00 2.912477334104937921e+00 2.837190393518518761e+00 2.776717303240741064e+00 2.772201003086419480e+00 2.821413966049382882e+00 2.897104552469135896e+00 2.843387345679011968e+00 2.839728491512345521e+00 2.822171585648148184e+00 2.799726080246913718e+00 2.801748649691357951e+00 2.898529128086420048e+00 2.980815007716049347e+00 3.041554301697531049e+00 3.055805844907407032e+00 3.064050443672839297e+00 3.072083815586419409e+00 3.051561535493827026e+00 3.059725597993827151e+00 3.066389371141975406e+00 3.103440393518518192e+00 3.135937982253086176e+00 3.127542920524691183e+00 3.130289351851851976e+00 3.077618634259259078e+00 2.995310570987654408e+00 2.898029031635802610e+00 2.813029996141975353e+00 2.773052662037037042e+00 2.758273533950617473e+00 2.765328414351851727e+00 2.784840374228394921e+00 2.821419270833333215e+00 2.833307773919753192e+00 2.808040123456790216e+00 2.772132040895061600e+00 2.768682002314814650e+00 2.774826388888889106e+00 2.822624903549382669e+00 2.883788580246913646e+00 2.915979938271604954e+00 2.936937210648148167e+00 2.956904417438271704e+00 2.979060088734567735e+00 2.999340760030864139e+00 3.010740740740740495e+00 3.013296199845679091e+00 3.031005497685185457e+00 3.048029513888888875e+00 3.045200135030864175e+00 3.041831597222222072e+00 2.978317418981481168e+00 2.872196180555555589e+00 2.717384259259259416e+00 2.666208043981481257e+00 2.649263117283950919e+00 2.652052469135802504e+00 2.670831886574073888e+00 2.692499999999999893e+00 2.737034625771605167e+00 2.755686246141975104e+00 2.732957175925926130e+00 2.694483024691357809e+00 2.693258101851851993e+00 2.744954185956790305e+00 2.817736786265432336e+00 2.880059317129629815e+00 2.753328993055555785e+00 2.776236496913580432e+00 2.826325713734568090e+00 2.881198398919752712e+00 2.918686342592592631e+00 2.931387442129629761e+00 2.945996334876542999e+00 2.941058545524691592e+00 2.958116319444444642e+00 2.962486979166666590e+00 2.996550443672839847e+00 2.986241319444444375e+00 2.845403163580246808e+00 2.756894772376543568e+00 2.654559702932098642e+00 2.618345871913580591e+00 2.611235050154321335e+00 2.624997106481481435e+00 2.670067997685185102e+00 2.733050250771604794e+00 2.761850887345679073e+00 2.749032118055555696e+00 2.722304687500000320e+00 2.724138213734567771e+00 2.770562789351851851e+00 2.836670042438271366e+00 2.882850597993827257e+00 2.909182098765431768e+00 2.912525077160494025e+00 2.908994502314814934e+00 2.903747588734567842e+00 2.775357349537037166e+00 2.787312885802469165e+00 2.842871334876543088e+00 2.891551890432098926e+00 2.948097511574073959e+00 2.959730420524691485e+00 2.960642361111111232e+00 2.972863136574074083e+00 2.864048514660493705e+00 2.803467881944444517e+00 2.716077835648147865e+00 2.663035300925925775e+00 2.659669656635802681e+00 2.694849054783950759e+00 2.758206500771605008e+00 2.835133584104938098e+00 2.869464699074073977e+00 2.850769675925926006e+00 2.810912905092592506e+00 2.796176215277777821e+00 2.829031153549382616e+00 2.882775366512345450e+00 2.929198495370370470e+00 2.953532503858024683e+00 2.969180169753086407e+00 2.965254629629629601e+00 2.957962962962962905e+00 2.984154610339506242e+00 2.987732928240740993e+00 3.001789158950617153e+00 2.812559799382715831e+00 2.842435378086419551e+00 2.899999999999999911e+00 2.878524305555555607e+00 2.781957947530863784e+00 2.696232156635802735e+00 2.614851466049382456e+00 2.581612654320987854e+00 2.590885898919752961e+00 2.632829378858024594e+00 2.697763310185185226e+00 2.765869984567900897e+00 2.784545717592592506e+00 2.758557098765432425e+00 2.735912905092592329e+00 2.754890528549382545e+00 2.802146508487654231e+00 2.873235918209876782e+00 2.902866994598765071e+00 2.917492283950617438e+00 2.915380979938271722e+00 2.911236979166667016e+00 2.908273533950617384e+00 2.911819058641975211e+00 2.936520543981481435e+00 2.954383198302469093e+00 2.963906732253086318e+00 2.984388503086419675e+00 2.991310281635802593e+00 2.932387152777777839e+00 2.813400848765431839e+00 2.693481385030863873e+00 2.597174479166666661e+00 2.548789062500000036e+00 2.542271412037036882e+00 2.534189814814815200e+00 2.547391493055555678e+00 2.583763503086419888e+00 2.617949942129629726e+00 2.607588252314814614e+00 2.606736593364197496e+00 2.623957368827160241e+00 2.682393904320987676e+00 2.756534047067901394e+00 2.817676986882716061e+00 2.864137249228394744e+00 2.871239872685185102e+00 2.873491512345679233e+00 2.865148533950617527e+00 2.872547260802469360e+00 2.873557581018518547e+00 2.870898437500000178e+00 2.891793981481481257e+00 2.901684027777777786e+00 2.925000964506172974e+00 2.948037712191358128e+00 2.941032503858024505e+00 2.801154996141975495e+00 2.699268904320987872e+00 2.618232060185185173e+00 2.584152681327160472e+00 2.572136863425925846e+00 2.644595389660493456e+00 2.621069637345679215e+00 2.656663290895061813e+00 2.705818383487654355e+00 2.722826003086419977e+00 2.737290702160493527e+00 2.777778742283950830e+00 2.827791763117283974e+00 2.844367283950617331e+00 2.830281635802469165e+00 2.827333622685185066e+00 2.826721161265432158e+00 2.839088059413580112e+00 2.860836226851851904e+00 2.877087191358024487e+00 2.891705729166667016e+00 2.897744984567901305e+00 2.910961130401234609e+00 2.923246045524691361e+00 2.943896122685185190e+00 2.952512538580246648e+00 2.961382137345679233e+00 2.973645351080246968e+00 2.979708236882715688e+00 2.843432195216049063e+00 2.731319926697531209e+00 2.637443094135802468e+00 2.606209008487654355e+00 2.604008487654321247e+00 2.603931327160494025e+00 2.658571566358024718e+00 2.664331597222222126e+00 2.707222222222222197e+00 2.721701388888889017e+00 2.724163290895061706e+00 2.742568962191358040e+00 2.788319830246913433e+00 2.829853395061728616e+00 2.858999324845679091e+00 2.864050443672839563e+00 2.849342689043210086e+00 2.849026813271605008e+00 2.858273533950617118e+00 2.870142264660493936e+00 2.902835165895061742e+00 2.935085358796296173e+00 2.944266493055555767e+00 2.940597029320987765e+00 2.955068962191357951e+00 2.971139081790123537e+00 2.991889949845679020e+00 3.007316743827160632e+00 3.030914351851851762e+00 3.024410686728395081e+00 3.035026041666666785e+00 2.934968653549382633e+00 2.875636091820987783e+00 2.763014081790123200e+00 2.711145351080246790e+00 2.694643132716049383e+00 2.694678337191358075e+00 2.719902584876543017e+00 2.730439814814814792e+00 2.767510127314814827e+00 2.783233989197530622e+00 2.755034722222222232e+00 2.744373553240740726e+00 2.774839409722221983e+00 2.835133584104938098e+00 2.898175636574074066e+00 2.920846354166666714e+00 2.928418209876542999e+00 2.910976080246913344e+00 2.918332851080246648e+00 2.933444251543209536e+00 2.950963059413580503e+00 2.973007812499999680e+00 2.989645061728395170e+00 3.011549479166666377e+00 3.014345582561728687e+00 3.022691454475308515e+00 3.028308738425926183e+00 3.034066358024691379e+00 3.043368055555555785e+00 3.045561824845679055e+00 2.919699074074074030e+00 2.853082561728395472e+00 2.738600983796296351e+00 2.692683738425925899e+00 2.682472511574073959e+00 2.683056037808642103e+00 2.699376929012345272e+00 2.733947723765432158e+00 2.737112268518518743e+00 2.750869020061728509e+00 2.752972608024691681e+00 2.802314332561728349e+00 2.854613233024691166e+00 2.900807291666666288e+00 2.909047550154320927e+00 2.909530767746913327e+00 2.924337866512345840e+00 2.938149112654321105e+00 2.947602237654320945e+00 2.970281635802469289e+00 2.997255979938271864e+00 3.026938175154321176e+00 3.029879918981481346e+00 3.037285879629629815e+00 3.061065297067901536e+00 3.064998553240740886e+00 3.068559510030864246e+00 3.060343846450617189e+00 3.068965567129629424e+00 3.055542534722222481e+00 2.942119020061728207e+00 2.816814236111111480e+00 2.732329282407407689e+00 2.694066358024691521e+00 2.701119309413580361e+00 2.747435378086419799e+00 2.815990547839505975e+00 2.759575135030864157e+00 2.782307581018518494e+00 2.818451967592592311e+00 2.837197145061728598e+00 2.877157600308641872e+00 2.934676408179012430e+00 2.972508198302469040e+00 2.986581307870370239e+00 2.990076678240740637e+00 3.018019386574073870e+00 3.040562789351851869e+00 3.041879340277777732e+00 3.042019193672839350e+00 3.052033661265432407e+00 3.055855034722222197e+00 3.063946759259259078e+00 3.062527970679012057e+00 3.074682195216049241e+00 3.095858410493827151e+00 3.117321084104938134e+00 3.121054687500000036e+00 3.130462962962963225e+00 3.130225694444444429e+00 3.136481481481481648e+00 3.058380111882716079e+00 3.000867573302469449e+00 2.943360821759259505e+00 2.891232638888888928e+00 2.855665991512345681e+00 2.850979938271605008e+00 2.861908757716049134e+00 2.874733796296296440e+00 2.893898051697530782e+00 2.904087094907407351e+00 2.881798321759259096e+00 2.855322627314814898e+00 2.872393422067901270e+00 2.923225308641975495e+00 2.998062789351851887e+00 3.056729841820987392e+00 3.085877700617284169e+00 3.080163483796296120e+00 3.057677951388888982e+00 3.077491801697530782e+00 3.085491898148148504e+00 3.092608989197530800e+00 3.096367187499999840e+00 3.115465374228395312e+00 3.109992766203703685e+00 3.119688946759259007e+00 3.120865644290123697e+00 3.115560378086419835e+00 3.111750578703703862e+00 3.089592013888888822e+00 2.994891010802469111e+00 2.945133584104938418e+00 2.874192226080246826e+00 2.836360918209876569e+00 2.830294656635802486e+00 2.855689139660493758e+00 2.930414737654321033e+00 3.015368923611110752e+00 2.874296392746913398e+00 2.823640046296296280e+00 2.788994984567901181e+00 2.845239679783950759e+00 2.928973283179012288e+00 3.011549479166666377e+00 3.072348572530864352e+00 3.095713252314815200e+00 3.096077835648148202e+00 3.102785011574074048e+00 3.100971739969135665e+00 3.113868634259259416e+00 3.123269193672839616e+00 3.118928433641975584e+00 3.110989583333333197e+00 3.095944251543209624e+00 3.115407021604938098e+00 3.114060570987654319e+00 3.104816743827160330e+00 3.010387249228394957e+00 2.940391589506172743e+00 2.869743441358024505e+00 2.834343171296296315e+00 2.816841724537037184e+00 2.822128182870370150e+00 2.827499517746913327e+00 2.845777874228395010e+00 2.896510898919753441e+00 2.918400366512345911e+00 2.898668981481481666e+00 2.839181134259259220e+00 2.844205246913580343e+00 2.893907696759259185e+00 2.959703896604938489e+00 2.996061921296296227e+00 3.019658564814814650e+00 3.018024209104938294e+00 3.033047839506172849e+00 3.051211419753086407e+00 3.071920331790123360e+00 3.104478202160493527e+00 3.114526909722222126e+00 3.114182581018518192e+00 3.138951099537036882e+00 3.142635030864197265e+00 3.135122010030864104e+00 3.139850501543210104e+00 3.116951678240740709e+00 3.058391685956789896e+00 2.975254629629629832e+00 2.878642457561728207e+00 2.837977912808641978e+00 2.786753472222222250e+00 2.765078607253086407e+00 2.724911265432098606e+00 2.724182581018518512e+00 2.752965374228395046e+00 2.788007812500000071e+00 2.803506944444444482e+00 2.782514949845678931e+00 2.775327449845678807e+00 2.781307388117284063e+00 2.815075713734567664e+00 2.873389274691358075e+00 2.925337094907407121e+00 2.960849729938271224e+00 2.977025945216049241e+00 2.986625675154320980e+00 3.032033661265431945e+00 3.045552662037037006e+00 3.062717978395061991e+00 3.070262827932098926e+00 3.072127700617284241e+00 3.066878375771604937e+00 3.062753182870370239e+00 3.055205439814814738e+00 3.057812982253086176e+00 3.061736111111111214e+00 2.992167727623456841e+00 2.923717206790123591e+00 2.846777102623456734e+00 2.789371141975308888e+00 2.758871527777777999e+00 2.759051408179012288e+00 2.759492669753086602e+00 2.771305941358024771e+00 2.824157503858024665e+00 2.864963831018518370e+00 2.865288387345679144e+00 2.849512442129629619e+00 2.842102141203703969e+00 2.885424864969135861e+00 2.798618827160493705e+00 2.890812596450617278e+00 2.951234085648148042e+00 2.974979745370370576e+00 2.971885609567901376e+00 2.988609664351852047e+00
