2.029832050540123305e+02 2.029749291087962888e+02 2.016494130979938291e+02 1.985604050925925890e+02 1.970674310378086602e+02 1.966720206404320948e+02 1.964856534529320982e+02 1.963626929012345670e+02 1.963234129050925958e+02 1.963987461419753231e+02 1.965148924575617286e+02 1.965260532407407652e+02 1.964587205825617389e+02 1.963958777006172909e+02 1.964250761959876570e+02 1.965738917824074008e+02 1.968121223958333417e+02 1.971127681327160417e+02 1.974475342399691442e+02 1.984118938078703707e+02 1.985043827160493777e+02 1.985841613618827068e+02 1.986486916473765518e+02 1.986474990354938086e+02 1.985881963734567819e+02 1.985606708140432204e+02 1.986216753472222081e+02 1.996840538194444434e+02 2.002979783950617332e+02 2.006628409529321004e+02 2.010060619212962933e+02 2.011139486882715914e+02 2.008219425154320845e+02 1.983152314814815043e+02 1.970290065586419814e+02 1.966128491512345704e+02 1.965136564429012367e+02 1.965709683641975403e+02 1.967804113618827273e+02 1.970835378086419780e+02 1.973069444444444400e+02 1.973692824074074110e+02 1.973143233989197540e+02 1.973073066165123350e+02 1.973984490740740796e+02 1.975926109182098855e+02 1.978756360918209793e+02 1.982508969907407277e+02 1.986773027584876559e+02 1.990845896026234527e+02 1.994091237461419723e+02 1.996663020833333348e+02 1.998879552469135774e+02 2.000739342206790354e+02 2.002830589313271616e+02 2.005178674768518476e+02 2.007643634259259500e+02 2.010684534143518647e+02 2.013268243634259136e+02 2.010945881558641872e+02 1.993286448688271548e+02 1.971131958912037021e+02 1.963417544367283938e+02 1.963154219714506326e+02 1.963844782021604942e+02 1.965126403356481433e+02 1.967372897376543222e+02 1.970438705632716108e+02 1.972354243827160474e+02 1.972614742476851859e+02 1.972334963348765484e+02 1.972588353587962899e+02 1.973778091242283779e+02 1.975962717013889005e+02 1.979117602237654410e+02 1.982864887152777840e+02 1.987198929398148266e+02 1.990712991898147948e+02 1.993718147183642202e+02 1.996275178433641884e+02 1.998685156250000148e+02 2.000847559799382793e+02 2.002929417438271571e+02 2.005012051504629653e+02 2.007683405671296271e+02 2.011187958140432102e+02 2.013674990354938359e+02 2.011145563271604999e+02 1.989833912037036896e+02 1.968990634645061846e+02 1.963145163001543381e+02 1.961208289930555395e+02 1.960682552083333405e+02 1.959546894290123475e+02 1.960288315007716164e+02 1.962134592013889005e+02 1.963822352430555611e+02 1.964319555362654341e+02 1.963906819058641986e+02 1.963631037808641793e+02 1.964037779706790161e+02 1.965546103395061550e+02 1.968299908371913602e+02 1.971479571759259386e+02 1.975114424189814883e+02 1.979020563271604942e+02 1.983062659143518545e+02 1.986896662808641736e+02 1.990029060570987838e+02 1.992667472029320948e+02 1.995152893518518624e+02 1.997700916280864192e+02 2.000732851080246917e+02 2.004775149498456983e+02 2.008107880015431874e+02 2.009526384066357991e+02 2.002933039158950521e+02 1.978979894868827216e+02 1.960967896412036851e+02 1.957259746334876525e+02 1.955804552469135729e+02 1.955495331790123430e+02 1.956016613618827193e+02 1.957507026427469157e+02 1.964110706018518329e+02 1.964330275848765552e+02 1.964141251929012526e+02 1.963868465470679041e+02 1.964377546296296373e+02 1.965950969328703763e+02 1.968285763888888766e+02 1.971280285493827193e+02 1.974732605131173102e+02 1.978484331597222194e+02 1.981869362461419826e+02 1.984771821952160451e+02 1.987572776813271673e+02 1.990433024691357957e+02 1.993043846450617309e+02 1.995654374035493674e+02 1.998609828317901247e+02 2.001942341820987679e+02 2.005105830439814838e+02 2.005385247878086545e+02 1.995357060185185105e+02 1.972038898533950828e+02 1.956105521797839515e+02 1.954015890239197688e+02 1.953399209104938450e+02 1.953773128858024677e+02 1.954860860339506416e+02 1.957388339120370233e+02 1.960103245563271628e+02 1.961606548996913659e+02 1.962005902777777919e+02 1.964366632908950407e+02 1.965043653549382725e+02 1.966646252893518465e+02 1.969071175733024575e+02 1.972228621720678916e+02 1.976216893325617150e+02 1.980132614776234448e+02 1.983464144483024540e+02 1.986642983217592757e+02 1.989251914544752822e+02 1.991412905092592496e+02 1.993679166666666731e+02 1.996479803240740694e+02 1.999661275077160383e+02 2.002997275270061550e+02 2.005057368827160360e+02 2.001348842592592518e+02 1.980882581018518636e+02 1.960343991126543131e+02 1.954884283371913511e+02 1.953348548418209703e+02 1.953373427854938313e+02 1.954453747106481671e+02 1.956866396604938245e+02 1.960208940972222251e+02 1.962030000964506371e+02 1.962548582175926128e+02 1.962620886381172909e+02 1.963216830632715926e+02 1.964922762345678962e+02 1.967585633680555475e+02 1.978259596836419973e+02 1.979526818094135763e+02 1.981678496334876627e+02 1.984159042245370586e+02 1.986315499614197506e+02 1.988474599729938177e+02 1.990725800540123203e+02 1.992801099537036862e+02 1.995086115933641793e+02 1.997497743055555475e+02 2.000157928240740546e+02 2.007283950617283779e+02 2.010566160300926128e+02 2.008390118634259238e+02 1.989277150848765245e+02 1.967616637731481433e+02 1.961679369212963024e+02 1.960240152391975244e+02 1.960407513503086250e+02 1.961708241705246962e+02 1.964385045331790138e+02 1.967307190393518681e+02 1.968759669174382907e+02 1.968397839506172886e+02 1.967717910879629528e+02 1.967707026427469259e+02 1.968844044174382759e+02 1.970859635416666720e+02 1.973472106481481489e+02 1.976915417631173000e+02 1.987561347415123407e+02 1.988406307870370426e+02 1.989611453510802619e+02 1.991103448109567751e+02 1.992588175154320993e+02 1.993997458526234539e+02 1.995679673032407493e+02 1.997734866898148312e+02 2.000597487461419917e+02 2.004113512731481421e+02 2.005082093942901338e+02 1.997571889467592712e+02 1.972304914158950453e+02 1.958129383680555691e+02 1.954789057677469089e+02 1.953883241705246974e+02 1.954295047260802676e+02 1.956003197337962831e+02 1.959022376543209703e+02 1.961860841049382600e+02 1.962903833912037044e+02 1.962614371141975198e+02 1.962363358410493674e+02 1.963042390046296362e+02 1.964793860918209703e+02 1.967554046103394967e+02 1.971262943672839469e+02 1.975725684799382691e+02 1.980012316743827228e+02 1.984275371334876752e+02 1.987426142939814895e+02 1.995523413387345784e+02 1.996269970100308626e+02 1.997361005015432340e+02 1.998814028742283995e+02 2.000453428819444355e+02 2.002415678047839549e+02 2.005158506944444525e+02 2.008257971643518545e+02 2.010192597415123430e+02 2.005705777391975460e+02 1.978922791280864146e+02 1.955696031057098878e+02 1.950486202739197381e+02 1.949071841242283938e+02 1.948820134066358207e+02 1.948920871913580299e+02 1.949793619791666686e+02 1.951470828510802562e+02 1.953059987461419666e+02 1.953819024884259079e+02 1.954120606674382543e+02 1.954906703317901133e+02 1.956301818094135854e+02 1.959028149112654376e+02 1.962706066743827193e+02 1.967762934027777817e+02 1.971895640432098560e+02 1.975869945987654148e+02 1.979648201195987838e+02 1.982923644868826898e+02 1.985898992091049422e+02 1.995002035108024643e+02 1.995838353587962786e+02 1.997358670910493856e+02 1.999151369598765484e+02 2.001432417052469077e+02 2.004471595293209703e+02 2.007549898726852007e+02 2.010923910108024586e+02 2.012019097222222115e+02 2.003667438271604908e+02 1.959866343557098674e+02 1.956166753472222126e+02 1.955152010995370233e+02 1.955031809413580390e+02 1.955181814236111109e+02 1.956413705632716074e+02 1.958309751157407277e+02 1.959769839891975209e+02 1.960135672260802551e+02 1.960209611304012469e+02 1.960771908757716062e+02 1.962258733603395058e+02 1.964738604359567660e+02 1.968004962384259500e+02 1.972109558256173045e+02 1.976624855324074019e+02 1.980392997685185321e+02 1.983873871527777624e+02 1.986965335648148141e+02 1.989582566550925833e+02 1.998277049575617355e+02 1.998991830632716074e+02 2.000169155092592348e+02 2.001777821180555748e+02 2.003997969714506269e+02 2.006707990933641952e+02 2.009957310956790195e+02 2.010498008294752879e+02 2.002619767554012356e+02 1.979048963155864271e+02 1.966867886766975460e+02 1.964013406635802426e+02 1.963418889853395228e+02 1.963986154513889062e+02 1.965583844521604817e+02 1.968236559606481535e+02 1.970172159529321050e+02 1.970618619791666788e+02 1.969959510030864180e+02 1.969693812692901247e+02 1.970387543402777624e+02 1.971884731867284017e+02 1.974359775270061732e+02 1.977906539351851904e+02 1.981783434606481364e+02 1.985256843171296453e+02 1.988764400077160417e+02 1.991811038773148255e+02 1.994632518325617241e+02 1.996744531249999852e+02 1.998952690972222115e+02 2.006420645254629562e+02 2.007212726658950714e+02 2.009115793788580220e+02 2.011255377121913455e+02 2.011245196759259386e+02 2.000408844521604976e+02 1.974999701003086443e+02 1.965106187307098651e+02 1.962567554012345852e+02 1.962031172839506326e+02 1.962790948109567921e+02 1.964565596064814770e+02 1.967362779706789979e+02 1.969615345293209998e+02 1.970476827739197745e+02 1.970381703317901270e+02 1.970328607253086375e+02 1.971253761574074019e+02 1.973275139853395217e+02 1.976237967785494050e+02 1.979825028935185003e+02 1.983910590277777715e+02 1.987685624035493674e+02 1.991412987075617309e+02 1.994282995756172738e+02 1.996736834490740762e+02 1.998912220293209998e+02 2.001139814814814883e+02 2.003318369020061596e+02 2.005734972993827228e+02 2.008343629436728293e+02 2.017604861111111347e+02 2.018148668981481535e+02 2.015276475694444400e+02 1.990845495756172738e+02 1.967309558256172863e+02 1.962146556712962990e+02 1.959944376929012435e+02 1.959318643904321107e+02 1.959038290895061607e+02 1.960557744984567705e+02 1.962002917631172636e+02 1.962553722993827137e+02 1.962604870756172772e+02 1.962868692129629551e+02 1.963946807484568069e+02 1.965895056905864067e+02 1.968684196566357798e+02 1.972216531635802426e+02 1.975792409336419553e+02 1.979269102044753197e+02 1.982622043788580299e+02 1.985622940779321084e+02 1.988440658757716051e+02 1.991254050925925867e+02 1.993994719328703695e+02 1.996472280092592655e+02 1.999084596836419507e+02 2.001839293981481376e+02 2.004987707368827046e+02 2.008407108410494004e+02 2.016425858410493674e+02 2.013677994791666777e+02 1.988606491126543290e+02 1.967267635995370370e+02 1.959607706404320879e+02 1.957500617283950817e+02 1.956830979938271469e+02 1.956591681134259204e+02 1.956881804591049274e+02 1.958006139081790025e+02 1.959315769675925765e+02 1.959901065779320959e+02 1.959928457754629676e+02 1.960027555941358059e+02 1.960861762152777885e+02 1.962752777777777737e+02 1.965257744984567978e+02 1.968438454861110927e+02 1.971754639274691385e+02 1.974866068672839674e+02 1.977970814043210055e+02 1.980652932098765291e+02 1.983221363811728395e+02 1.985748394097222160e+02 1.988086574074074235e+02 1.990435619212962877e+02 1.992924585262345545e+02 1.995731582754629585e+02 1.999190788966049297e+02 2.002775168788580231e+02 2.004917312885802403e+02 1.998748239776234641e+02 1.983287842399691385e+02 1.961887032214505950e+02 1.957072029320987667e+02 1.955543479938271503e+02 1.955524228395061641e+02 1.956573013117283892e+02 1.958989482060185310e+02 1.961914568865740875e+02 1.963327367862654569e+02 1.963287065972222081e+02 1.962851364776234391e+02 1.963025824652777658e+02 1.964235624035493686e+02 1.966294367283950635e+02 1.968886549961419803e+02 1.972191941550925947e+02 1.975693663194444412e+02 1.979280758101851916e+02 1.982421764081790059e+02 1.985253530092592769e+02 1.987544343171296362e+02 1.989833289930555509e+02 1.991901109182098821e+02 1.994109336419753049e+02 1.996898982445987656e+02 2.000107581018518488e+02 2.002902830825617286e+02 2.001908733603395092e+02 1.985086689814814633e+02 1.963593995949073872e+02 1.951856148726851643e+02 1.951657359182098617e+02 1.952028862847222115e+02 1.952939800347222388e+02 1.954465909529320982e+02 1.957079861111110972e+02 1.959102772955247076e+02 1.959751089891975369e+02 1.959686072530864180e+02 1.960755627893518636e+02 1.962619155092592678e+02 1.965452445023148300e+02 1.969044323881173000e+02 1.973044405864197586e+02 1.976603756751543131e+02 1.980089255401234709e+02 1.983051634837962922e+02 1.985590432098765348e+02 1.987848297646604863e+02 1.990348852237654569e+02 1.992722752700617264e+02 1.995100154320987826e+02 1.998096069637345522e+02 2.001786911651234391e+02 2.004895061728394978e+02 2.003986019483024847e+02 1.987458116319444343e+02 1.963473543595679018e+02 1.953379687500000159e+02 1.951093262924382543e+02 1.950420645254629619e+02 1.950644155092592769e+02 1.951128433641975164e+02 1.952356013695987826e+02 1.954222140239197643e+02 1.955437017746913568e+02 1.955925376157407243e+02 1.956363040123456756e+02 1.957551384066357798e+02 1.959741975308641884e+02 1.962718523341049490e+02 1.966583130787036851e+02 1.970415760030864192e+02 1.974255015432098617e+02 1.977752565586419564e+02 1.981066107253086557e+02 1.983801509452160587e+02 1.986361279899691397e+02 1.989205039544752935e+02 1.991721175733024722e+02 1.994477039930555691e+02 1.997284264081790184e+02 2.000351210455246758e+02 2.004253645833333337e+02 2.007508588927469191e+02 2.006291724537037169e+02 1.990029118441358094e+02 1.966440393518518590e+02 1.960205873842592723e+02 1.958209910300925856e+02 1.957544507137345704e+02 1.958375983796296396e+02 1.958918195408950567e+02 1.960486636766975153e+02 1.962011574074074076e+02 1.962613932291666572e+02 1.962473461612654262e+02 1.962608511766975425e+02 1.963296682098765302e+02 1.964912263695987633e+02 1.967255391589506246e+02 1.970201485339506178e+02 1.973507262731481262e+02 1.977224180169752970e+02 1.980066242283950828e+02 1.982617573302468941e+02 1.984784143518518533e+02 1.986874271797839526e+02 1.988808362268518692e+02 1.991012958140431977e+02 1.993152213541666526e+02 1.995807653356481524e+02 1.998469950810185196e+02 2.001128014081790241e+02 2.001316854745370222e+02 1.992638170331790093e+02 1.970370293209876422e+02 1.961657465277777703e+02 1.958615875771604919e+02 1.957507812499999886e+02 1.957697468171296293e+02 1.959248360339506121e+02 1.967620828510802369e+02 1.968017110339506246e+02 1.967703327546296350e+02 1.966806418788580402e+02 1.966311979166666788e+02 1.966737485532407277e+02 1.968062432484567807e+02 1.970095915316358059e+02 1.975698895640432227e+02 1.979232344714506269e+02 1.982419319058642202e+02 1.985240489969135922e+02 1.987535966435185060e+02 1.989590084876543017e+02 1.991545370370370449e+02 1.993684071180555577e+02 1.996054320987654478e+02 1.998826485339506007e+02 2.002211588541666742e+02 2.003980637538580254e+02 1.999822593557098855e+02 1.979085537229938154e+02 1.960641796875000011e+02 1.954929446373456869e+02 1.953936062885802301e+02 1.953832156635802448e+02 1.954212832754629687e+02 1.955546199845679212e+02 1.957502483603394978e+02 1.958876740933641827e+02 1.961630179398148357e+02 1.961513233024691374e+02 1.961601114004629665e+02 1.962769569830247178e+02 1.964752097800925981e+02 1.967367168209876525e+02 1.970257609953703763e+02 1.973730102237654478e+02 1.977200699266975050e+02 1.980334447337962729e+02 1.982796923225308774e+02 1.985154118441358264e+02 1.987445375192901338e+02 1.989811863425925935e+02 1.992365017361111086e+02 1.995144690393518374e+02 1.998128568672839549e+02 2.001759534143518522e+02 2.004675130208333371e+02 2.003448842592592598e+02 1.985385059799382645e+02 1.963861009837962968e+02 1.955633019868827205e+02 1.953718865740740966e+02 1.953162813464506371e+02 1.953157359182098674e+02 1.953658039158950714e+02 1.955333328510802460e+02 1.957386159336419666e+02 1.958446339699073917e+02 1.958835146604938302e+02 1.962319174382716085e+02 1.963036260609567876e+02 1.964738266782407550e+02 1.967036178626543119e+02 1.969840287422839538e+02 1.973083844521604817e+02 1.976502126736110938e+02 1.979606254822530786e+02 1.982511212384259238e+02 1.985152242476851825e+02 1.987715089699073872e+02 1.990193677662036862e+02 1.992674151234567717e+02 1.995302271412037101e+02 1.997852170138888823e+02 2.000838416280864180e+02 2.003858434606481467e+02 2.006930092592592700e+02 2.007901417824074031e+02 2.000674266975308626e+02 1.977906698495370392e+02 1.962250159143518431e+02 1.959114202353395058e+02 1.958031090856481455e+02 1.957839076967592575e+02 1.958185204475308581e+02 1.959336429398148312e+02 1.961186250964506144e+02 1.962297815393518476e+02 1.962323283179012208e+02 1.962074758873456801e+02 1.964855425347222138e+02 1.965667799961419746e+02 1.967450188078703661e+02 1.969558786651234641e+02 1.972107682291666890e+02 1.974756804591049502e+02 1.979981688850308785e+02 1.982328650655864237e+02 1.984568639081790025e+02 1.986506872106481580e+02 1.988664076967592678e+02 1.990732990933641986e+02 1.993105743634259284e+02 1.995833960262345670e+02 1.999016661844135854e+02 2.001549874614197506e+02 2.001170968364197336e+02 1.990107508680555384e+02 1.969518098958333212e+02 1.960809350887345488e+02 1.958703086419752992e+02 1.958300332754629665e+02 1.958990528549382759e+02 1.960885990547839413e+02 1.963654856288580390e+02 1.965573369984567762e+02 1.966028901427469293e+02 1.965571846064814849e+02 1.965503525270061687e+02 1.966523606288580197e+02 1.974019352816358150e+02 1.975063792438271548e+02 1.976883719135802551e+02 1.979206756365740603e+02 1.981688893711419723e+02 1.983989964313271628e+02 1.986321585648148300e+02 1.988470360725308694e+02 1.990603366126543108e+02 1.992735947145061743e+02 1.994907981288580174e+02 1.997459413580246803e+02 2.000256838348765598e+02 2.003255000964506110e+02 2.006118851273148209e+02 2.005189766589506064e+02 1.989943981481481501e+02 1.966328496334876377e+02 1.960096199845679052e+02 1.957715162037036976e+02 1.957152941743827057e+02 1.957068672839506007e+02 1.957426760223765427e+02 1.958803853202160496e+02 1.960381751543209816e+02 1.961156524884259227e+02 1.961087051504629528e+02 1.961277483603394955e+02 1.962277917631172954e+02 1.964066116898148096e+02 1.966572632137345522e+02 1.976623982445987622e+02 1.977430290316357855e+02 1.979125062692901338e+02 1.980896026234568126e+02 1.982545924961419814e+02 1.984320833333333383e+02 1.986224633487654216e+02 1.988174604552469305e+02 1.990401847029320948e+02 1.992722140239197586e+02 1.995131756365740614e+02 1.997545047260802562e+02 2.000573586998456790e+02 2.003761024305555338e+02 2.004771098572530832e+02 1.996660305748456778e+02 1.969997347608024540e+02 1.958338242669753129e+02 1.954297825038580072e+02 1.952879639274691215e+02 1.952160223765432079e+02 1.951827039930555543e+02 1.952668865740740500e+02 1.954441965663580447e+02 1.955757354359568012e+02 1.956382754629629517e+02 1.956647337962963036e+02 1.957431785300925924e+02 1.958981650270061721e+02 1.961435474537036896e+02 1.964800636574074133e+02 1.977152454668209884e+02 1.978150472608024586e+02 1.979675815007715869e+02 1.981708839699074076e+02 1.983713956404320982e+02 1.985628626543209805e+02 1.989614337384259386e+02 1.991979788773148243e+02 1.994671918402777919e+02 1.997350757137345738e+02 2.000250091628086295e+02 2.003299797453703661e+02 2.006581385030864055e+02 2.009734379822530741e+02 2.008702883873456813e+02 1.993432002314814895e+02 1.971310788001543131e+02 1.962618267746913716e+02 1.960679894868827091e+02 1.960170244984567773e+02 1.960430700231481467e+02 1.961312803819444355e+02 1.962991893325617241e+02 1.964518036265432102e+02 1.964749556327160462e+02 1.964265880594136036e+02 1.964231438078703604e+02 1.964955068479938234e+02 1.966642023533950407e+02 1.969260937500000068e+02 1.980188054591049536e+02 1.981208106674382634e+02 1.983095461998456983e+02 1.985366271219135683e+02 1.987486009837963081e+02 1.989799344135802528e+02 1.991909095293209759e+02 1.993976142939814622e+02 1.996032624421296191e+02 1.998312027391975221e+02 2.000602671682098617e+02 2.003622718942901031e+02 2.006624647955246985e+02 2.009018301504629562e+02 2.007685643325617093e+02 1.991473558063271412e+02 1.972449840856481558e+02 1.963865832368827000e+02 1.962344275655864010e+02 1.962544507137345704e+02 1.963670384837962786e+02 1.966240128279321198e+02 1.969415152391975425e+02 1.971328505979938086e+02 1.971361757330246860e+02 1.970641343557098821e+02 1.970360194830246883e+02 1.971072680362654523e+02 1.972714149305555509e+02 1.975115084876543108e+02 1.978015359760802312e+02 1.988901774691358071e+02 1.989675207368827046e+02 1.990990383873456722e+02 1.992426485339506144e+02 1.993791034915123248e+02 1.995507460455246758e+02 1.997314163773148152e+02 1.999110855516975107e+02 2.001072482638888914e+02 2.003378684413580402e+02 2.006577903163580174e+02 2.009311226851851870e+02 2.007436294367283836e+02 1.988343108603395137e+02 1.964806057098765564e+02 1.958636776620370483e+02 1.956392269483024791e+02 1.955628009259259272e+02 1.955269299768518465e+02 1.955805054012345749e+02 1.957410170717592450e+02 1.959074035493827068e+02 1.959877025462963047e+02 1.959943277391975300e+02 1.960176104359567830e+02 1.961125327932098799e+02 1.963160030864197552e+02 1.965827502893518499e+02 1.969180584490740671e+02 1.972685349151234391e+02 1.976252951388889016e+02 1.987404817708333269e+02 1.987846156442901133e+02 1.988700434027777817e+02 1.989905941358024677e+02 1.991269208140432170e+02 1.993349585262345727e+02 1.994974074074074224e+02 1.997538237847222433e+02 2.000867814429012412e+02 2.004235252700617309e+02 2.004078780864197427e+02 1.990466454475308637e+02 1.965430690586419757e+02 1.954261627121913705e+02 1.952622646604938268e+02 1.952311443865740728e+02 1.952326326195987747e+02 1.952649377893518476e+02 1.953922516396604863e+02 1.955985976080246758e+02 1.957372188464506166e+02 1.957870669367283938e+02 1.958240051118827125e+02 1.959226003086419610e+02 1.961044111689814997e+02 1.963788903356481512e+02 1.967518412422839731e+02 1.971227097800925776e+02 1.975043865740740614e+02 1.978750622106481671e+02 1.989085373263888812e+02 1.989720076195987701e+02 1.990709047067901167e+02 1.992060739776234755e+02 1.993669603587963195e+02 1.995512615740740614e+02 1.997715142746913557e+02 2.000284968171296214e+02 2.003184244791666799e+02 2.006216690779321254e+02 2.008213237847222388e+02 2.004339023919753231e+02 1.983380025077160269e+02 1.965692245370370586e+02 1.961533733603394865e+02 1.960257836612654216e+02 1.960303616898148107e+02 1.961070703124999852e+02 1.962680251736111074e+02 1.964518166473765461e+02 1.965532093942901213e+02 1.965548394097222342e+02 1.965269868827160451e+02 1.965406896219135717e+02 1.966384505208333167e+02 1.968438932291666674e+02 1.970873413387345749e+02 1.973613768325617457e+02 1.976726639660493845e+02 1.979964689429012310e+02 1.982771026234568126e+02 1.991330082947530968e+02 1.991779562114197688e+02 1.992618340084876536e+02 1.993633342978394865e+02 1.995065615354938302e+02 1.996944690393518442e+02 1.999428761574073974e+02 2.002091739004629574e+02 2.004274392361110984e+02 2.002089163773148357e+02 1.984379287229938313e+02 1.963318822337962786e+02 1.958060455246913705e+02 1.957047511574074008e+02 1.958428284143518567e+02 1.961385585455246883e+02
2.854879822530864075e+01 2.853438126929012242e+01 2.623322482638888786e+01 2.296631510416666444e+01 2.178083285108024825e+01 2.147982060185185205e+01 2.145931182484567756e+01 2.151805073302469395e+01 2.162541859567901170e+01 2.184969714506172878e+01 2.209235532407407376e+01 2.214087770061728122e+01 2.206466579861110944e+01 2.198350212191358111e+01 2.203234133873456813e+01 2.221251687885802539e+01 2.246676504629629534e+01 2.277846836419753274e+01 2.312986738040123313e+01 2.443575327932098773e+01 2.450354986496913767e+01 2.440023967978395092e+01 2.422749807098765373e+01 2.388767698688271679e+01 2.347374710648147911e+01 2.305821373456790369e+01 2.278465470679012128e+01 2.420425540123456898e+01 2.515284191743827336e+01 2.583388551311728421e+01 2.646354986496913497e+01 2.688912422839506178e+01 2.627950183256172778e+01 2.321051601080246840e+01 2.184029947916666714e+01 2.144155237268518732e+01 2.139230516975308660e+01 2.152464313271604723e+01 2.182749228395061536e+01 2.222828510802469282e+01 2.251226610725308674e+01 2.256097173996913696e+01 2.249437548225308703e+01 2.248297501929012299e+01 2.260353539737654316e+01 2.284373070987654586e+01 2.318678096064815009e+01 2.360839072145061479e+01 2.409028597608024569e+01 2.450979311342592482e+01 2.484333140432098830e+01 2.512585648148148110e+01 2.534768904320987559e+01 2.552389274691357812e+01 2.572063368055555443e+01 2.596096547067901383e+01 2.623911747685185247e+01 2.657768180941357983e+01 2.687796923225308632e+01 2.656575472608024668e+01 2.395086082175926023e+01 2.194139515817901298e+01 2.069652150848765260e+01 2.077161313657407149e+01 2.093765769675925625e+01 2.118436535493827222e+01 2.151483265817901369e+01 2.192599440586419846e+01 2.217377748842592666e+01 2.217739920910493723e+01 2.212760657793209873e+01 2.217100115740741018e+01 2.232686728395061593e+01 2.258984857253086176e+01 2.297974874614197560e+01 2.343451485339506135e+01 2.391995949074074090e+01 2.432570408950617491e+01 2.467693576388888843e+01 2.495064284336419647e+01 2.520329234182098688e+01 2.543169029706790241e+01 2.567403163580246783e+01 2.593156201774691283e+01 2.624107687114197773e+01 2.666287663966049593e+01 2.698484182098765416e+01 2.660863329475308703e+01 2.362108940972222015e+01 2.168714409722221959e+01 2.104603539737654216e+01 2.088043354552469211e+01 2.088485966435185048e+01 2.093099826388889184e+01 2.105171585648148280e+01 2.129555025077160479e+01 2.151754774305555529e+01 2.156723765432098716e+01 2.153169077932098574e+01 2.153253616898147982e+01 2.162476755401234740e+01 2.183374951774691297e+01 2.215267023533950663e+01 2.251982301311728563e+01 2.290799238040123598e+01 2.332887104552469282e+01 2.373201147762345542e+01 2.411772617669753060e+01 2.445788821373457012e+01 2.475433304398148238e+01 2.503317660108024967e+01 2.532465036651234414e+01 2.566454861111111185e+01 2.609863763503086176e+01 2.653391830632715909e+01 2.670961275077160479e+01 2.574179060570987687e+01 2.249594280478395092e+01 2.101694974922839521e+01 2.056624180169752947e+01 2.045770592206790184e+01 2.051210599922839251e+01 2.063577305169753018e+01 2.086836178626543159e+01 2.169621479552469268e+01 2.174649691358024839e+01 2.171246913580246840e+01 2.165369984567901440e+01 2.169473572530864303e+01 2.186688030478395106e+01 2.212483410493827307e+01 2.245837239583333300e+01 2.283137827932098674e+01 2.323391637731481651e+01 2.360079282407407320e+01 2.390169656635802298e+01 2.420840229552468870e+01 2.449520351080246883e+01 2.474133391203703880e+01 2.502201630015431988e+01 2.532682532793209873e+01 2.570265383873456955e+01 2.607029128086420044e+01 2.607786844135802440e+01 2.466520640432098688e+01 2.196574893904320902e+01 2.064435136959876615e+01 2.038420138888888999e+01 2.036230468750000000e+01 2.046631510416666444e+01 2.064382619598765345e+01 2.095722897376543159e+01 2.130329716435185006e+01 2.146823254243827250e+01 2.148588059413580353e+01 2.162106288580246982e+01 2.174199893904321002e+01 2.195573640046296404e+01 2.225158854166666700e+01 2.260841820987654316e+01 2.304139274691357997e+01 2.345882233796296390e+01 2.381717544367284134e+01 2.414532310956790084e+01 2.442859857253086631e+01 2.464652536651234627e+01 2.488389660493827193e+01 2.518257233796296291e+01 2.554672405478395092e+01 2.591297260802469182e+01 2.616800443672839194e+01 2.561583092206790369e+01 2.272557532793209845e+01 2.105266010802469268e+01 2.052087384259259295e+01 2.038652681327160465e+01 2.045907407407407419e+01 2.063647714120370580e+01 2.095629147376543244e+01 2.133942467206790283e+01 2.154021653163580297e+01 2.155026234567901255e+01 2.154229890046296347e+01 2.158676456404321087e+01 2.176776282793209916e+01 2.205368682484567699e+01 2.308828944830246854e+01 2.325457417052469111e+01 2.352142264660493964e+01 2.380850935570987659e+01 2.404282744984568154e+01 2.428174672067900985e+01 2.452764612268518363e+01 2.474533950617284006e+01 2.497501109182098844e+01 2.521692611882716051e+01 2.549681616512345528e+01 2.625942949459876630e+01 2.662109857253086176e+01 2.630633246527777658e+01 2.364071469907407419e+01 2.165385850694444514e+01 2.103745707947530974e+01 2.090897087191358139e+01 2.098014515817901326e+01 2.119846064814814923e+01 2.156231288580246996e+01 2.193043016975308390e+01 2.208906250000000071e+01 2.204676167052469182e+01 2.195609809027777715e+01 2.196058159722221959e+01 2.211068576388889184e+01 2.236060040509259039e+01 2.267078510802469182e+01 2.304937692901234669e+01 2.418730758101851919e+01 2.434949652777777729e+01 2.452174720293210086e+01 2.469340229552468813e+01 2.487364776234567998e+01 2.503790846836419703e+01 2.524072579089505908e+01 2.548966386959876473e+01 2.582323157793209845e+01 2.622209442515432087e+01 2.634085744598765544e+01 2.529272665895061678e+01 2.228047887731481325e+01 2.114715952932098730e+01 2.077767071759259565e+01 2.074315345293209845e+01 2.090165653935185119e+01 2.118417245370370239e+01 2.158343894675925867e+01 2.192087143132716065e+01 2.202676986882715937e+01 2.197498601466049450e+01 2.191882185570987573e+01 2.198393614969135967e+01 2.218613570601851848e+01 2.250330054012345471e+01 2.290551745756172863e+01 2.336596884645061678e+01 2.380978829089506021e+01 2.425523292824074062e+01 2.459887008101851791e+01 2.557039544753086346e+01 2.567924672067901426e+01 2.581381896219135896e+01 2.598112991898148039e+01 2.616280285493827051e+01 2.640333719135802681e+01 2.672280960648148351e+01 2.710143904320987573e+01 2.736402536651234740e+01 2.668603539737654273e+01 2.304500434027777800e+01 2.110671633873456798e+01 2.053052565586419931e+01 2.043267554012345855e+01 2.049087239583333542e+01 2.058151523919752890e+01 2.073864824459876743e+01 2.099336226851851706e+01 2.121801311728394879e+01 2.129636140046296333e+01 2.130626639660493638e+01 2.137970244984568069e+01 2.155031442901234584e+01 2.184741898148148209e+01 2.224878327546296219e+01 2.274907937885802411e+01 2.317201485339506206e+01 2.357446084104938322e+01 2.396867380401234726e+01 2.432353829089506192e+01 2.462832995756172849e+01 2.564524594907407362e+01 2.578682243441357969e+01 2.597103973765431917e+01 2.619903067129629548e+01 2.646507764274691610e+01 2.682543451003086687e+01 2.719410204475308390e+01 2.760658516589506206e+01 2.773894627700617121e+01 2.649309510030864345e+01 2.140532793209876417e+01 2.097506703317901255e+01 2.089590952932098844e+01 2.096729311342592794e+01 2.105108699845678899e+01 2.124930169753086417e+01 2.150777922453703539e+01 2.168441020447530931e+01 2.172386477623457068e+01 2.171776861496913824e+01 2.177353539737654131e+01 2.194105999228395021e+01 2.221536554783950734e+01 2.258430459104938137e+01 2.299363281249999957e+01 2.345598427854938350e+01 2.385000241126543230e+01 2.420404947916666671e+01 2.451846161265432045e+01 2.479503086419753188e+01 2.568629581404320916e+01 2.578389130015431974e+01 2.593730420524691027e+01 2.612676793981481538e+01 2.638624131944444429e+01 2.671030960648148422e+01 2.710097222222222157e+01 2.715797212577160735e+01 2.591840760030864033e+01 2.308485725308641889e+01 2.202155140817901113e+01 2.167957127700617193e+01 2.160187114197530889e+01 2.171882185570987644e+01 2.197041039737654344e+01 2.232426311728395163e+01 2.258123987268518462e+01 2.262431520061728563e+01 2.254050443672839776e+01 2.249830102237654472e+01 2.258085937499999929e+01 2.277616126543209774e+01 2.307731963734567771e+01 2.347878761574074247e+01 2.391452256944444343e+01 2.431603539737654529e+01 2.470183352623456940e+01 2.504494839891975033e+01 2.534249324845679041e+01 2.559752700617283949e+01 2.584502700617283821e+01 2.675129533179012498e+01 2.689326292438271437e+01 2.714520833333333272e+01 2.744341579861110958e+01 2.743173369984567955e+01 2.586384211033950464e+01 2.305259741512345784e+01 2.204861689814814696e+01 2.174273389274691226e+01 2.172119212962963175e+01 2.185700327932098830e+01 2.210583333333333300e+01 2.245766830632716093e+01 2.276199025848765345e+01 2.284756365740740947e+01 2.280458429783950791e+01 2.278242476851851706e+01 2.288562065972222470e+01 2.310512345679012469e+01 2.343778694058642031e+01 2.384262201003086545e+01 2.428272424768518434e+01 2.471171826774691027e+01 2.509975549768518732e+01 2.541862702546296404e+01 2.571064670138888886e+01 2.597528452932098730e+01 2.622239149305555372e+01 2.650099633487654316e+01 2.680136091820987687e+01 2.714716435185185262e+01 2.841310667438271764e+01 2.853611111111111143e+01 2.810880835262345556e+01 2.456019290123456855e+01 2.233366367669752961e+01 2.161507523148148024e+01 2.140567708333333030e+01 2.139918692129629818e+01 2.143576485339506021e+01 2.173185329861111015e+01 2.195304205246913654e+01 2.204052131558641747e+01 2.203356095679012583e+01 2.206117428626543386e+01 2.218729456018518675e+01 2.242246045524691311e+01 2.274491898148148294e+01 2.313421440972222243e+01 2.353845582561728378e+01 2.392227816358024839e+01 2.428962239583333371e+01 2.462526379243827179e+01 2.492495081018518732e+01 2.522520206404320930e+01 2.552902488425925753e+01 2.580677903163580211e+01 2.611004243827160565e+01 2.642124662422839521e+01 2.677836564429012256e+01 2.721541039737654444e+01 2.836009837962962976e+01 2.793248312114197773e+01 2.436967255015431988e+01 2.224459828317901255e+01 2.136107253086419533e+01 2.115319685570987573e+01 2.111963348765431903e+01 2.115133535879629534e+01 2.123913773148148110e+01 2.141993827160493780e+01 2.161630594135802497e+01 2.168896556712963175e+01 2.167504002700617249e+01 2.168599488811728193e+01 2.179002893518518746e+01 2.201169994212962777e+01 2.230900270061728463e+01 2.266097318672839478e+01 2.301872347608024683e+01 2.336306520061728520e+01 2.367787085262345670e+01 2.395507812500000000e+01 2.422911024305555827e+01 2.447484616126543244e+01 2.470258294753086403e+01 2.494599488811728349e+01 2.523643518518518292e+01 2.554378568672839478e+01 2.590961805555555486e+01 2.630810281635802284e+01 2.658398437500000000e+01 2.573933593749999815e+01 2.340197916666666700e+01 2.170218942901234627e+01 2.109579427083333414e+01 2.095317708333333329e+01 2.102643807870370196e+01 2.122527488425926023e+01 2.154851707175926023e+01 2.191773389274691297e+01 2.209135079089506348e+01 2.205925106095678956e+01 2.198965181327160678e+01 2.202177372685185119e+01 2.217786892361111128e+01 2.243474778163580297e+01 2.274845148533950479e+01 2.311822000385802411e+01 2.350821228780864303e+01 2.389572048611110944e+01 2.423910445601851649e+01 2.456355758101852160e+01 2.483134982638888744e+01 2.509048369984568083e+01 2.533231963734568026e+01 2.560831259645061664e+01 2.592396508487654216e+01 2.631616994598765658e+01 2.665809654706790255e+01 2.651062885802469182e+01 2.414899450231481381e+01 2.201598234953703681e+01 2.048329812885802426e+01 2.052691068672839592e+01 2.066730131172839435e+01 2.088541377314814795e+01 2.117985773533950677e+01 2.156626060956790170e+01 2.184175347222222285e+01 2.191578028549382751e+01 2.188886863425926066e+01 2.202218557098765217e+01 2.226247636959876530e+01 2.259301167052468884e+01 2.300162519290123342e+01 2.345228780864197660e+01 2.384834924768518505e+01 2.420325183256172608e+01 2.452987172067901156e+01 2.481125385802469197e+01 2.506884066358024654e+01 2.533596161265432301e+01 2.560626736111111157e+01 2.588681616512345940e+01 2.622319444444444514e+01 2.664305121527777587e+01 2.701934847608024626e+01 2.688999180169753345e+01 2.443655574845679013e+01 2.200878038194444386e+01 2.106550974151234712e+01 2.081815007716049593e+01 2.072599922839506092e+01 2.080754918981481438e+01 2.090006944444444414e+01 2.109097415123456898e+01 2.132980324074074119e+01 2.148144386574074005e+01 2.154041329089506362e+01 2.157473717206789843e+01 2.170791811342592581e+01 2.195960214120370324e+01 2.228894965277777729e+01 2.269365210262345656e+01 2.309472270447530917e+01 2.350367959104938009e+01 2.387548369984568097e+01 2.418868634259259309e+01 2.448904320987654515e+01 2.475397858796296191e+01 2.504839072145061607e+01 2.531705198688271707e+01 2.560520833333333357e+01 2.590590374228395021e+01 2.624968798225308575e+01 2.669991657021605036e+01 2.709349006558642259e+01 2.689652970679012256e+01 2.447249083719135854e+01 2.208799864969135740e+01 2.137176167052469111e+01 2.117493152006172608e+01 2.115865306712963090e+01 2.126469714506172792e+01 2.138153404706790184e+01 2.159996865354938222e+01 2.181681182484567927e+01 2.188115788966049280e+01 2.184245997299382580e+01 2.184094521604938066e+01 2.193552324459876601e+01 2.213667004243827208e+01 2.240766734182098574e+01 2.273714554398148024e+01 2.309245225694444414e+01 2.346560715663580154e+01 2.377777054398148238e+01 2.404227719907407490e+01 2.427979359567900985e+01 2.450288532021604837e+01 2.471470293209876345e+01 2.495355082947530789e+01 2.520287278163580069e+01 2.548756028163580467e+01 2.582411506558641889e+01 2.614772762345679169e+01 2.617831163194444244e+01 2.500551649305555557e+01 2.245884018132716164e+01 2.160317226080246655e+01 2.131052662037037138e+01 2.126138744212963161e+01 2.136464216820987616e+01 2.160660349151234527e+01 2.265200906635802625e+01 2.273215422453703738e+01 2.268461902006172792e+01 2.254422164351851876e+01 2.246596836419753274e+01 2.250755401234567898e+01 2.267625723379629576e+01 2.292180314429012356e+01 2.357875964506173005e+01 2.395827787422839705e+01 2.431335696373457012e+01 2.461380497685185276e+01 2.488219232253086233e+01 2.511807581018518221e+01 2.533697916666666572e+01 2.558328607253086417e+01 2.586089457947531045e+01 2.619099247685185006e+01 2.658519675925926151e+01 2.682073254243827165e+01 2.622749373070987744e+01 2.322999469521604965e+01 2.161668113425925952e+01 2.109015914351851961e+01 2.098184895833333030e+01 2.103947820216049536e+01 2.114666714891975374e+01 2.135842640817901383e+01 2.162416666666666387e+01 2.180181520061728406e+01 2.201794897762345471e+01 2.201440875771605121e+01 2.204049672067901255e+01 2.218087962962962933e+01 2.243050829475308561e+01 2.273609567901234740e+01 2.307055314429012327e+01 2.346134837962963005e+01 2.383669897762345613e+01 2.416621817129629690e+01 2.443956597222222271e+01 2.470343026620370352e+01 2.495768759645061863e+01 2.520755979938271807e+01 2.546197241512345855e+01 2.575971932870370296e+01 2.609423369984568097e+01 2.649496045524691468e+01 2.685215904706790369e+01 2.664810088734568083e+01 2.404343074845678885e+01 2.186702256944444756e+01 2.107185619212962990e+01 2.086242476851851890e+01 2.084547116126542932e+01 2.088950231481481268e+01 2.098807581018518675e+01 2.122424093364197617e+01 2.147888937114197461e+01 2.160074749228395063e+01 2.162275077160493808e+01 2.188583333333333414e+01 2.200749421296296404e+01 2.221531153549382509e+01 2.250275704089506235e+01 2.283332802854938137e+01 2.320286072530864274e+01 2.358112172067901113e+01 2.392110628858024768e+01 2.423004918981481381e+01 2.451153742283950621e+01 2.477253713348765274e+01 2.503910831404321158e+01 2.529431471836419831e+01 2.557637635030864232e+01 2.586912374614197319e+01 2.621382860725308461e+01 2.658416956018518462e+01 2.695925781249999886e+01 2.708938271604938208e+01 2.600961323302469097e+01 2.291970630787037067e+01 2.157193528163580254e+01 2.117427469135802554e+01 2.108288869598765203e+01 2.111714988425925910e+01 2.121581838348765459e+01 2.139574604552468884e+01 2.164489101080247124e+01 2.177755304783950407e+01 2.176841242283950706e+01 2.172571277006172608e+01 2.197135223765432244e+01 2.210035252700617292e+01 2.231866319444444358e+01 2.259469135802468998e+01 2.289328076774691212e+01 2.322063850308641975e+01 2.380204185956790042e+01 2.404583236882715980e+01 2.427335503472222200e+01 2.449030430169753103e+01 2.471712094907407220e+01 2.495839795524691240e+01 2.521267891589506149e+01 2.552505208333333542e+01 2.589553915895061920e+01 2.622206886574073792e+01 2.616830150462962834e+01 2.454701147762345670e+01 2.228282503858024910e+01 2.145472270447530860e+01 2.124897858796296291e+01 2.124932195216049280e+01 2.138676938657407334e+01 2.167231819058642017e+01 2.203878520447530676e+01 2.228075617283950649e+01 2.231558497299382893e+01 2.225360484182098730e+01 2.223948350694444542e+01 2.233687644675925910e+01 2.305425588348765586e+01 2.322714747299382765e+01 2.348976658950617491e+01 2.378998842592592666e+01 2.411761091820987701e+01 2.437933738425925867e+01 2.464477864583333400e+01 2.489104118441358082e+01 2.513939814814814611e+01 2.536809076003086361e+01 2.559630497685185446e+01 2.587659673996913767e+01 2.619341097608024782e+01 2.655213300540123456e+01 2.690623987268518746e+01 2.676993103780864303e+01 2.445279369212963161e+01 2.205365547839506135e+01 2.129628665123456699e+01 2.108064621913580083e+01 2.106818576388888786e+01 2.112554060570987602e+01 2.121890094521604908e+01 2.143902150848765586e+01 2.165825038580246797e+01 2.174308738425925824e+01 2.171476176697530747e+01 2.172088589891975374e+01 2.183344569830246940e+01 2.206272907021604723e+01 2.236057146990740563e+01 2.342536024305555387e+01 2.357233989197530732e+01 2.376389901620370182e+01 2.395038290895061550e+01 2.415223813657407348e+01 2.434147280092592780e+01 2.455713638117283892e+01 2.479257040895061692e+01 2.504773726851852089e+01 2.529854021990740875e+01 2.556321180555555372e+01 2.584725163966049521e+01 2.620300009645061934e+01 2.657730082947530903e+01 2.669545283564814753e+01 2.549109905478394822e+01 2.230637683256172821e+01 2.117629629629629662e+01 2.076152633101851919e+01 2.065250434027777970e+01 2.064891927083333556e+01 2.065775511188271807e+01 2.079975597993827208e+01 2.105678771219135825e+01 2.124283805941357883e+01 2.131326967592592680e+01 2.132301359953703468e+01 2.141032262731481595e+01 2.158707127700617434e+01 2.184260898919752947e+01 2.220311535493826938e+01 2.343222270447531130e+01 2.358871817129629633e+01 2.377932484567901383e+01 2.401779658564814923e+01 2.425467737268518675e+01 2.446204427083333499e+01 2.484293788580247053e+01 2.507300684799382751e+01 2.533530671296296077e+01 2.559678771219135740e+01 2.590112461419753132e+01 2.624008921682098716e+01 2.659223813657407476e+01 2.695304301697530747e+01 2.679646894290123527e+01 2.456827739197530747e+01 2.222681954089506107e+01 2.138072145061728335e+01 2.117737991898148309e+01 2.119674623842592709e+01 2.130099681712962933e+01 2.145658854166666529e+01 2.169360243055555770e+01 2.187336178626543060e+01 2.187163917824074133e+01 2.179970389660493879e+01 2.177195023148147968e+01 2.187224006558642131e+01 2.207700472608024711e+01 2.240757957175925696e+01 2.361772328317901426e+01 2.379201147762345414e+01 2.402944058641975289e+01 2.430274160879629619e+01 2.456353443287036953e+01 2.481513454861111256e+01 2.505895399305555316e+01 2.527982976466049436e+01 2.550421103395061806e+01 2.575851128472222129e+01 2.601921730324074034e+01 2.633383053626543102e+01 2.666690634645061664e+01 2.695545042438271821e+01 2.673991512345678956e+01 2.436926745756172608e+01 2.239324025848765487e+01 2.161781008873456855e+01 2.145017505787037138e+01 2.150025077160493581e+01 2.170298418209876345e+01 2.205182388117284020e+01 2.245058883101851777e+01 2.267781346450617264e+01 2.267618971836419917e+01 2.256924623842592581e+01 2.253875192901234570e+01 2.263962818287037138e+01 2.284197289737654302e+01 2.313125289351851777e+01 2.347833863811728250e+01 2.465849103009259125e+01 2.479122395833333314e+01 2.495469473379629477e+01 2.512209828317901383e+01 2.530542727623456756e+01 2.549471402391975161e+01 2.569968798225308504e+01 2.589620081018518505e+01 2.614342351466049408e+01 2.642165364583333442e+01 2.680447386188271608e+01 2.715207272376543202e+01 2.689055893132715980e+01 2.413220582561728378e+01 2.179633825231481481e+01 2.110640383873456827e+01 2.090553385416666643e+01 2.091404562114197319e+01 2.097401909722222157e+01 2.108637827932098574e+01 2.133209828317901113e+01 2.158168161651234485e+01 2.169983121141975246e+01 2.169018036265432059e+01 2.171678578317901298e+01 2.183910638503086687e+01 2.208974344135802426e+01 2.239671682098765260e+01 2.278191695601852018e+01 2.316495611496913654e+01 2.356095582561728463e+01 2.472451003086419874e+01 2.484042582947531130e+01 2.495753182870370424e+01 2.511406732253086460e+01 2.527538435570987474e+01 2.557160976080247039e+01 2.577995804398148039e+01 2.608357301311728449e+01 2.646811390817901355e+01 2.685997829861111086e+01 2.679194155092592666e+01 2.470308883101851904e+01 2.205920235339506164e+01 2.104408179012345670e+01 2.081962673611111114e+01 2.081618730709876530e+01 2.085589940200617320e+01 2.093214747299382950e+01 2.111982204861111256e+01 2.139523051697530676e+01 2.154923996913580098e+01 2.159546826774691297e+01 2.162832609953703411e+01 2.173204041280864018e+01 2.195047935956790042e+01 2.225051504629629662e+01 2.263591338734567771e+01 2.303581114969135868e+01 2.344364197530864402e+01 2.380171248070987744e+01 2.485124276620370409e+01 2.495218653549382637e+01 2.507797598379629633e+01 2.522220775462962905e+01 2.540429639274691098e+01 2.561666811342592709e+01 2.587725887345678899e+01 2.618188994984567941e+01 2.652694444444444244e+01 2.689497251157407476e+01 2.713886381172839535e+01 2.656254099151234627e+01 2.354333622685184935e+01 2.197229841820987417e+01 2.145498553240740947e+01 2.135010754243827336e+01 2.141875964506172991e+01 2.155361496913580410e+01 2.179274643132715994e+01 2.206058690200617178e+01 2.218336902006172551e+01 2.217508101851851876e+01 2.212468557098765487e+01 2.214546055169753203e+01 2.227166618441357926e+01 2.250907359182098944e+01 2.280708285108024569e+01 2.312890335648148366e+01 2.347712818287036995e+01 2.382599344135802610e+01 2.412920476466049280e+01 2.506138599537036882e+01 2.515846354166666643e+01 2.526690007716049280e+01 2.539714265046296404e+01 2.555929060570987943e+01 2.577154899691358025e+01 2.606455343364197574e+01 2.641223910108024597e+01 2.670049093364197645e+01 2.637625771604938407e+01 2.389170524691358111e+01 2.204402874228394893e+01 2.143873890817901184e+01 2.131038917824074375e+01 2.141469425154321016e+01 2.168758198302469253e+01
1.738035590277777587e+01 1.742225163966049450e+01 1.721170235339506149e+01 1.625534963348765416e+01 1.587578848379629548e+01 1.581010898919753238e+01 1.564059992283950606e+01 1.549803819444444386e+01 1.542212046682098681e+01 1.533619261188271565e+01 1.530071469907407256e+01 1.535317901234567906e+01 1.544792052469135690e+01 1.550290509259259331e+01 1.547338782793209866e+01 1.540290123456790283e+01 1.539171826774691354e+01 1.543320264274691134e+01 1.547745852623456742e+01 1.597393518518518363e+01 1.596713782793209901e+01 1.597468074845679098e+01 1.585676649305555408e+01 1.580585310570987545e+01 1.569106385030864104e+01 1.550691358024691446e+01 1.539478636188271565e+01 1.562756028163580169e+01 1.589182339891975282e+01 1.596668885030864438e+01 1.610677372685185205e+01 1.655217496141975175e+01 1.688642891589505979e+01 1.617316502700617420e+01 1.590499035493827229e+01 1.574187789351852018e+01 1.562351032021605057e+01 1.551150704089506149e+01 1.543546006944444393e+01 1.533581693672839563e+01 1.534702064043209901e+01 1.547392554012345833e+01 1.552875289351851684e+01 1.557476224922839414e+01 1.556638406635802241e+01 1.551434895833333449e+01 1.547793981481481396e+01 1.548238522376543003e+01 1.554549768518518604e+01 1.565877507716049521e+01 1.578746865354938222e+01 1.585643614969135839e+01 1.593499662422839336e+01 1.602789737654320845e+01 1.607020109953703724e+01 1.613137104552469125e+01 1.614113474151234584e+01 1.618909143518518690e+01 1.626889901620370438e+01 1.645394338348765473e+01 1.609674913194444557e+01 1.553531876929012512e+01 1.544584346064814717e+01 1.525582658179012441e+01 1.521759211033950443e+01 1.519209201388888708e+01 1.520674527391975417e+01 1.518957851080246968e+01 1.529339265046296426e+01 1.541704378858024604e+01 1.552232735339506142e+01 1.552439911265431860e+01 1.552094135802468955e+01 1.548244020061728321e+01 1.543667341820987637e+01 1.543838879243827122e+01 1.556093364197530882e+01 1.561199122299382580e+01 1.569612798996913661e+01 1.577353973765432116e+01 1.587842978395061699e+01 1.594987316743827321e+01 1.595424961419753096e+01 1.596866174768518398e+01 1.603678240740740435e+01 1.608838589891975346e+01 1.616762490354938464e+01 1.639638695987654060e+01 1.591553096064814810e+01 1.552952401620370360e+01 1.551433111496913497e+01 1.546319637345678899e+01 1.542419994212962919e+01 1.527613667052469104e+01 1.512041377314814738e+01 1.508271556712963068e+01 1.511680073302469296e+01 1.521850549768518590e+01 1.531279079861111292e+01 1.535413435570987595e+01 1.529603009259259316e+01 1.523846836419753181e+01 1.521791714891975289e+01 1.521532021604938301e+01 1.525772424768518398e+01 1.531380063657407220e+01 1.541432773919752997e+01 1.555302710262345833e+01 1.562076340663580432e+01 1.569694830246913497e+01 1.571256944444444592e+01 1.575962914737654330e+01 1.582544801311728300e+01 1.592757474922839300e+01 1.598120949074074026e+01 1.608831163194444613e+01 1.631179253472222257e+01 1.567297067901234620e+01 1.535398726851851947e+01 1.533237316743827172e+01 1.530704909336419917e+01 1.519099585262345720e+01 1.513577449845679013e+01 1.508957127700617207e+01 1.538448688271605036e+01 1.532793113425926101e+01 1.537316792052469161e+01 1.544789641203703923e+01 1.540578559027777672e+01 1.535085165895061721e+01 1.533027970679012419e+01 1.530355516975308738e+01 1.533738570601851947e+01 1.536793981481481453e+01 1.545099440586419881e+01 1.554420910493827179e+01 1.557498456790123420e+01 1.566552903163580268e+01 1.575161168981481374e+01 1.578319155092592574e+01 1.583892795138888765e+01 1.588335792824073955e+01 1.596714072145061714e+01 1.609679735725308447e+01 1.618754774305555699e+01 1.556598379629629747e+01 1.522233314043210051e+01 1.521326292438271643e+01 1.515417824074074105e+01 1.510684461805555578e+01 1.506232783564814781e+01 1.500700810185185219e+01 1.497411795910493737e+01 1.503638213734567763e+01 1.514854021990740662e+01 1.545578173225308660e+01 1.529791714891975474e+01 1.525854166666666600e+01 1.521070360725308568e+01 1.525672260802469182e+01 1.530036988811728449e+01 1.538519772376543315e+01 1.546798707561728392e+01 1.555813126929012569e+01 1.562551504629629839e+01 1.569659673996913440e+01 1.574988763503086453e+01 1.577892698688271622e+01 1.579930217978395035e+01 1.587294897762345691e+01 1.595473379629629562e+01 1.618589506172839521e+01 1.571418740354938315e+01 1.522665268132716143e+01 1.523296585648148316e+01 1.517972993827160444e+01 1.512917390046296262e+01 1.506385995370370345e+01 1.500387345679012263e+01 1.496540123456790106e+01 1.501144531249999936e+01 1.514771556712962841e+01 1.521474344135802426e+01 1.524859712577160664e+01 1.525047694830246670e+01 1.520069251543209887e+01 1.575499855324074083e+01 1.558766637731481453e+01 1.556206211419753238e+01 1.556749807098765359e+01 1.558924672067901263e+01 1.563634452160493815e+01 1.566904465663580304e+01 1.571368634259259345e+01 1.578641734182098944e+01 1.582584297839506071e+01 1.588252459490740875e+01 1.605465229552468998e+01 1.613091579861110958e+01 1.632869068287036995e+01 1.596326292438271643e+01 1.549787856867284042e+01 1.550392988040123399e+01 1.542751639660493801e+01 1.535778501157407483e+01 1.522749710648148280e+01 1.514203751929012221e+01 1.513501398533950493e+01 1.524125578703703887e+01 1.532609760802469268e+01 1.543643422067901128e+01 1.544889226466049337e+01 1.536209297839506149e+01 1.532058786651234783e+01 1.530127797067901163e+01 1.532061390817901092e+01 1.603754388503086403e+01 1.580986979166666551e+01 1.578630304783950500e+01 1.579880256558642060e+01 1.578135898919753188e+01 1.583495466820987652e+01 1.583799238040123569e+01 1.586311005015432229e+01 1.587220486111111128e+01 1.591141444830246776e+01 1.602485387731481481e+01 1.618054253472222470e+01 1.550446469907407554e+01 1.535923804012345784e+01 1.532961178626543131e+01 1.525082417052468919e+01 1.509704427083333300e+01 1.496002507716049479e+01 1.490956259645061799e+01 1.495786168981481445e+01 1.506778404706790120e+01 1.518657552083333506e+01 1.526697000385802383e+01 1.524081500771604958e+01 1.519786844135802539e+01 1.514129388503086382e+01 1.516280864197530853e+01 1.525155237268518604e+01 1.533355324074073955e+01 1.543614004629629655e+01 1.554032841435185119e+01 1.611764226466049266e+01 1.597340036651234563e+01 1.593417534722222229e+01 1.593948640046296283e+01 1.595033034336419675e+01 1.593308400848765416e+01 1.594315586419753039e+01 1.597816358024691397e+01 1.602506992669752961e+01 1.627416956018518590e+01 1.561346932870370452e+01 1.506256028163580218e+01 1.510129147376543202e+01 1.507863281250000043e+01 1.500907503858024761e+01 1.492519386574074147e+01 1.487841435185185190e+01 1.481099633487654366e+01 1.478486496913580339e+01 1.488593846450617342e+01 1.500251446759259366e+01 1.502169222608024768e+01 1.496729552469135882e+01 1.493490306712963012e+01 1.494208670910493808e+01 1.507425733024691361e+01 1.511546874999999979e+01 1.521619454089506185e+01 1.530816116898148316e+01 1.538690055941357926e+01 1.547328124999999943e+01 1.613456741898148294e+01 1.595427854938271750e+01 1.592284288194444386e+01 1.590185426311728456e+01 1.593694299768518441e+01 1.594351417824073991e+01 1.595832899305555408e+01 1.598745900848765622e+01 1.609095486111111128e+01 1.629045090663580098e+01 1.524070842978395035e+01 1.525010513117283928e+01 1.523495563271604958e+01 1.515687355324074126e+01 1.509891396604938230e+01 1.500210792824073991e+01 1.494808207947530931e+01 1.499307677469135847e+01 1.508005979938271501e+01 1.515499083719135776e+01 1.517998553240740911e+01 1.512763020833333449e+01 1.513500144675925974e+01 1.511126639660493787e+01 1.517429060570987431e+01 1.527446566358024604e+01 1.534670958719135747e+01 1.542198832947530818e+01 1.550874373070987744e+01 1.558145109953703589e+01 1.621509259259259039e+01 1.608455102237654444e+01 1.600381462191358040e+01 1.598180217978395135e+01 1.600300491898148181e+01 1.602313271604938194e+01 1.603249421296296262e+01 1.615361593364197645e+01 1.633094425154321172e+01 1.574257619598765423e+01 1.558673755787037152e+01 1.550202449845679098e+01 1.546255738811728264e+01 1.535660927854938151e+01 1.523073688271605164e+01 1.516140239197530803e+01 1.514723668981481453e+01 1.527110580632716008e+01 1.535470196759259309e+01 1.539887731481481303e+01 1.537538966049382694e+01 1.532409432870370303e+01 1.527723572530864438e+01 1.527475501543209901e+01 1.534955680941358125e+01 1.538378327546296376e+01 1.548797357253086560e+01 1.555552179783950706e+01 1.566446518132715937e+01 1.570875434027777828e+01 1.574474729938271622e+01 1.640450472608024768e+01 1.620086950231481637e+01 1.616884500385802426e+01 1.612932677469135712e+01 1.623745032793209830e+01 1.632430603780864331e+01 1.565847318672839705e+01 1.551919945987654259e+01 1.548347993827160529e+01 1.539686101466049628e+01 1.524501253858024619e+01 1.517040605709876466e+01 1.510071373456790234e+01 1.509654851466049408e+01 1.518185088734568033e+01 1.529377748842592410e+01 1.535346064814814682e+01 1.531735918209876601e+01 1.529105082947530825e+01 1.527919174382716072e+01 1.529175588348765480e+01 1.534819299768518697e+01 1.540460503472222342e+01 1.546989969135802312e+01 1.558188078703703816e+01 1.564707320601851848e+01 1.570940538194444613e+01 1.578147955246913625e+01 1.583222897376543337e+01 1.585603587962962813e+01 1.585937403549382729e+01 1.663794463734567941e+01 1.642407552083333400e+01 1.659066888503086545e+01 1.589322000385802447e+01 1.533833719135802554e+01 1.537509307484567955e+01 1.531964072145061628e+01 1.525062548225308667e+01 1.518481336805555593e+01 1.504471402391975232e+01 1.499058063271604979e+01 1.504321759259259217e+01 1.514355709876543088e+01 1.518840808256172714e+01 1.518781635802469232e+01 1.510625578703703731e+01 1.506401765046296326e+01 1.512251687885802554e+01 1.514955246913580211e+01 1.522735580632715902e+01 1.532676552854938379e+01 1.538089168595679190e+01 1.546909047067901355e+01 1.554642457561728364e+01 1.558203607253086354e+01 1.562390383873456834e+01 1.567289158950617178e+01 1.571840904706790099e+01 1.584790268132716129e+01 1.589209008487654273e+01 1.653779755015431974e+01 1.665054108796296006e+01 1.589229214891975417e+01 1.549862220293209703e+01 1.536706404320987573e+01 1.527922212577160366e+01 1.525175057870370310e+01 1.519691936728395021e+01 1.513030864197530967e+01 1.506269675925925888e+01 1.499356336805555578e+01 1.504855468749999936e+01 1.512631896219135719e+01 1.515001253858024732e+01 1.512317129629629520e+01 1.509452594521604851e+01 1.506363811728395063e+01 1.505105613425925881e+01 1.512249710648148060e+01 1.515846739969135903e+01 1.523804639274691297e+01 1.530485484182098688e+01 1.538868730709876509e+01 1.548145351080246890e+01 1.552048755787037138e+01 1.557238908179012427e+01 1.560672791280864402e+01 1.565681423611111178e+01 1.574756606867283892e+01 1.580054542824074026e+01 1.585489293981481396e+01 1.618426601080246741e+01 1.587342930169753075e+01 1.536796537422839393e+01 1.530846836419753032e+01 1.522464457947530825e+01 1.512626350308642031e+01 1.501245177469135683e+01 1.494019579475308745e+01 1.490860194830246854e+01 1.498426022376543187e+01 1.509177372685185148e+01 1.518579330632716129e+01 1.517469376929012270e+01 1.512497444058641882e+01 1.507289303626543209e+01 1.507627363040123392e+01 1.510562837577160522e+01 1.512561921296296319e+01 1.520989679783950521e+01 1.526706693672839599e+01 1.535776379243827172e+01 1.543082079475308532e+01 1.548437355324074005e+01 1.557256799768518363e+01 1.561249324845679176e+01 1.564793740354938301e+01 1.564620900848765217e+01 1.572020351080246670e+01 1.590898967978395184e+01 1.565798948688271608e+01 1.527833719135802504e+01 1.519036988811728506e+01 1.504151041666666622e+01 1.494333960262345684e+01 1.485208912037037088e+01 1.478713011188271587e+01 1.475800443672839535e+01 1.480516685956790113e+01 1.490869695216049351e+01 1.508588927469135754e+01 1.503295283564814788e+01 1.497441358024691382e+01 1.494705584490740691e+01 1.497386284722222172e+01 1.505395061728395056e+01 1.511011477623456756e+01 1.519880642361111178e+01 1.527788676697531045e+01 1.533478153935185340e+01 1.536192853009259274e+01 1.544851369598765345e+01 1.552445505401234449e+01 1.554879870756172622e+01 1.563149546682098645e+01 1.570416473765432208e+01 1.576239438657407277e+01 1.593146219135802610e+01 1.574506751543209937e+01 1.529357735339506164e+01 1.516255738811728371e+01 1.509784866898148259e+01 1.507118007330246989e+01 1.492399112654321058e+01 1.487809461805555600e+01 1.486838445216049287e+01 1.484960358796296198e+01 1.487320457175925981e+01 1.490440489969135740e+01 1.496412326388888836e+01 1.496886381172839542e+01 1.490881172839506164e+01 1.490913773148148103e+01 1.498818142361111150e+01 1.505017361111111107e+01 1.510105420524691411e+01 1.517009018132715958e+01 1.528448881172839613e+01 1.530949315200617455e+01 1.536564284336419917e+01 1.547309895833333471e+01 1.552597415123456592e+01 1.557671537422839414e+01 1.563563030478395000e+01 1.569435956790123399e+01 1.574339602623456891e+01 1.582378086419753238e+01 1.607000192901234570e+01 1.586729407793209923e+01 1.534990933641975452e+01 1.536395543981481637e+01 1.531797743055555650e+01 1.523022907021604944e+01 1.530209394290123548e+01 1.514339023919753124e+01 1.506362750771604908e+01 1.501774450231481417e+01 1.508028163580246961e+01 1.516728346836419661e+01 1.520228057484567863e+01 1.515098861882716186e+01 1.510672598379629683e+01 1.508703993055555515e+01 1.510702787422839499e+01 1.512571373456790091e+01 1.518593942901234506e+01 1.525387152777777899e+01 1.533867091049382658e+01 1.539921344521604851e+01 1.547731674382715994e+01 1.549475260416666700e+01 1.554349344135802369e+01 1.554778694058642152e+01 1.559677662037037038e+01 1.565017746913580154e+01 1.570686776620370217e+01 1.582265142746913611e+01 1.589862027391975197e+01 1.538709297839506185e+01 1.532696180555555721e+01 1.531531442901234641e+01 1.522469521604938336e+01 1.512277777777777743e+01 1.500851224922839577e+01 1.538281057098765459e+01 1.527246720679012348e+01 1.529380111882716164e+01 1.535571132330246868e+01 1.538435763888888985e+01 1.536421875000000092e+01 1.529475260416666771e+01 1.521353491512345890e+01 1.514574122299382708e+01 1.522867380401234527e+01 1.527202980324073955e+01 1.538059365354938279e+01 1.540205246913580339e+01 1.543789737654320859e+01 1.551638888888888879e+01 1.554767312885802610e+01 1.556041280864197596e+01 1.560103009259259110e+01 1.566716724537037209e+01 1.574352575231481488e+01 1.599442322530864402e+01 1.558911313657407405e+01 1.520875482253086375e+01 1.512940682870370424e+01 1.505470196759259238e+01 1.499784915123456841e+01 1.492286217206789978e+01 1.485408082561728449e+01 1.480409432870370345e+01 1.485630111882715987e+01 1.526636863425925839e+01 1.519114969135802440e+01 1.513714988425926045e+01 1.510720582561728342e+01 1.506877170138888822e+01 1.504644145447530867e+01 1.504252025462962905e+01 1.511086805555555479e+01 1.518318094135802276e+01 1.523134934413580233e+01 1.529127604166666643e+01 1.532034481095679190e+01 1.537999807098765359e+01 1.541786120756172807e+01 1.550288097993827030e+01 1.556562114197530988e+01 1.561894820601851741e+01 1.565078896604938485e+01 1.573238859953703717e+01 1.595544367283950571e+01 1.565747492283950670e+01 1.522642795138888872e+01 1.518446566358024619e+01 1.518713638117283971e+01 1.510008535879629576e+01 1.502064332561728399e+01 1.496229552469135804e+01 1.485440489969135847e+01 1.480804446373456784e+01 1.488303047839506199e+01 1.494321421682098716e+01 1.532294077932098908e+01 1.510793836805555479e+01 1.504550057870370416e+01 1.504506365740740748e+01 1.502169415509259309e+01 1.508090229552469097e+01 1.513783034336419853e+01 1.520324508101851890e+01 1.526956404320987559e+01 1.534542004243827229e+01 1.540651186342592815e+01 1.546647231867283878e+01 1.552778163580246762e+01 1.557990258487654422e+01 1.564624180169753132e+01 1.569956307870370438e+01 1.573040123456789985e+01 1.582140046296296276e+01 1.590698929398148209e+01 1.615631317515432031e+01 1.556722415123456926e+01 1.531126543209876623e+01 1.529791184413580396e+01 1.523426697530864438e+01 1.518887104552469047e+01 1.506418354552469197e+01 1.502258294753086432e+01 1.497067660108024612e+01 1.501674720293209830e+01 1.509932773919753046e+01 1.519030671296296298e+01 1.541723910108024675e+01 1.522238667052469197e+01 1.518420765817901241e+01 1.515504484953703646e+01 1.514544367283950521e+01 1.520702015817901298e+01 1.526491994598765345e+01 1.531257330246913639e+01 1.539973813657407220e+01 1.544878616898148316e+01 1.550507667824073899e+01 1.549460455246913604e+01 1.554033179012345833e+01 1.559128472222222328e+01 1.561035349151234541e+01 1.568662808641975381e+01 1.582102430555555550e+01 1.585674382716049280e+01 1.539628423996913753e+01 1.529857638888888971e+01 1.527026909722222214e+01 1.518825327932098723e+01 1.509289737654320973e+01 1.496074845679012455e+01 1.492285734953703802e+01 1.497529128086419625e+01 1.508765625000000021e+01 1.514684413580246947e+01 1.519134982638889042e+01 1.515765480324074055e+01 1.561240113811728492e+01 1.540666521990740634e+01 1.533870611496913661e+01 1.533142457561728378e+01 1.529750578703703923e+01 1.534930410879629470e+01 1.542970582561728321e+01 1.546934461805555650e+01 1.549096739969135861e+01 1.557492766203703738e+01 1.565120949074074197e+01 1.568202208719135804e+01 1.571754147376543109e+01 1.574176649305555387e+01 1.579076099537036981e+01 1.597862316743827193e+01 1.586590036651234747e+01 1.532015480324074197e+01 1.534044945987654351e+01 1.527799720293210051e+01 1.523700135030864367e+01 1.512121238425925895e+01 1.506065007716049386e+01 1.495480131172839577e+01 1.494875000000000043e+01 1.503235628858024775e+01 1.509956741898148103e+01 1.514750868055555699e+01 1.512556278935185183e+01 1.506398485725308589e+01 1.505489438657407497e+01 1.563241174768518604e+01 1.544830873842592744e+01 1.541845341435185190e+01 1.543761477623456813e+01 1.542515335648148245e+01 1.546977141203703887e+01 1.549710021219135747e+01 1.550271942515431967e+01 1.552526234567901220e+01 1.555252700617284134e+01 1.561926118827160437e+01 1.568252266589506050e+01 1.572799479166666714e+01 1.576084153163580304e+01 1.582147376543209738e+01 1.604091772762345869e+01 1.536630979938271579e+01 1.525068045910493986e+01 1.516562065972222229e+01 1.513096064814814845e+01 1.505085165895061827e+01 1.502396315586419817e+01 1.496457368827160472e+01 1.488432629243827066e+01 1.486283227237654359e+01 1.491912326388889021e+01 1.499257040895061799e+01 1.498710117669753039e+01 1.497345582561728428e+01 1.497030237268518604e+01 1.497322145061728449e+01 1.567952546296296390e+01 1.549627218364197390e+01 1.547209587191357905e+01 1.544531732253086354e+01 1.543656298225308809e+01 1.546482494212962955e+01 1.556737654320987652e+01 1.561841820987654295e+01 1.568773292824074161e+01 1.573405381944444592e+01 1.577920380015432045e+01 1.581579957561728378e+01 1.588324893904321122e+01 1.596106674382716051e+01 1.618056375385802426e+01 1.601110580632715852e+01 1.554487461419753203e+01 1.546335648148148145e+01 1.540120466820987488e+01 1.529405912422839542e+01 1.518147762345679119e+01 1.512459587191358068e+01 1.507917052469135832e+01 1.507382185570987687e+01 1.517807918595678984e+01 1.525246190200617313e+01 1.530836902006172728e+01 1.525770399305555536e+01 1.518716917438271530e+01 1.509209972993827265e+01 1.576292293595679084e+01 1.553801408179012533e+01 1.549377411265432158e+01 1.547877073688271565e+01 1.548949363425925974e+01 1.551316984953703759e+01 1.553929542824074161e+01 1.560531925154321087e+01 1.564603829089506348e+01 1.570429446373456628e+01 1.575337818287037095e+01 1.580373601466049394e+01 1.589148726851851912e+01 1.593893807870370161e+01 1.614204282407407476e+01 1.586330536265432123e+01 1.553999951774691191e+01 1.542173659336419789e+01 1.537673707561728342e+01 1.530811873070987694e+01 1.518360677083333243e+01 1.507060281635802390e+01 1.503731433256172778e+01 1.515298032407407369e+01 1.524965133101851755e+01 1.537825906635802298e+01 1.542247106481481467e+01 1.534760947145061571e+01 1.531572434413580375e+01 1.527008728780864288e+01 1.522632667824074026e+01 1.593617428626543209e+01 1.577204330632715923e+01 1.574555507330246762e+01 1.576700713734568104e+01 1.575281973379629541e+01 1.570620225694444372e+01 1.574544222608024491e+01 1.578036072530864331e+01 1.580110918209876658e+01 1.581564187885802575e+01 1.587907503858024860e+01 1.593756221064814937e+01 1.611931086033950677e+01 1.578712625385802504e+01 1.524140383873456628e+01 1.524684220679012370e+01 1.520952305169753238e+01 1.513756751543209766e+01 1.505271894290123491e+01 1.501004581404320959e+01 1.492597608024691347e+01 1.488610387731481488e+01 1.495259066358024747e+01 1.507060763888888921e+01 1.507037181712962948e+01 1.504665895061728342e+01 1.497482445987654387e+01 1.499591290509259345e+01 1.498922067901234634e+01 1.508721788194444358e+01 1.512601900077160444e+01 1.594375241126543408e+01 1.573175106095678899e+01 1.569511525848765565e+01 1.563336082175925768e+01 1.561682291666666700e+01 1.563465952932098801e+01 1.565555989583333485e+01 1.563010995370370360e+01 1.567395833333333321e+01 1.570800540123456734e+01 1.589548128858024789e+01 1.587279706790123512e+01 1.525915075231481488e+01 1.512180362654321009e+01 1.515057918595678998e+01 1.507225067515432038e+01 1.503513647762345684e+01 1.494557966820987716e+01 1.489618875385802532e+01 1.480934220679012192e+01 1.484203269675925974e+01 1.489678047839506192e+01 1.496913532021604887e+01 1.499869454089506249e+01 1.495370949074074041e+01 1.492600887345678906e+01 1.500335648148148060e+01 1.506253858024691361e+01 1.508472222222222214e+01 1.523383246527777857e+01 1.592818528163580361e+01 1.578898196373456742e+01 1.573148148148148096e+01 1.573202932098765494e+01 1.572161554783950521e+01 1.570517023533950685e+01 1.569026282793209681e+01 1.571098910108024604e+01 1.576868344907407327e+01 1.580093026620370367e+01 1.587144675925925874e+01 1.610909481095679041e+01 1.572004388503086503e+01 1.541017168209876509e+01 1.539569299768518640e+01 1.528561390817901255e+01 1.518354890046296113e+01 1.514275655864197567e+01 1.507621624228394985e+01 1.503313464506172892e+01 1.508624276620370352e+01 1.516468123070987772e+01 1.524061969521604887e+01 1.523315779320987673e+01 1.518575135030864232e+01 1.513603105709876573e+01 1.510790268132715930e+01 1.511695746527777828e+01 1.514976321373456791e+01 1.523303578317901241e+01 1.529375964506172991e+01 1.599526041666666565e+01 1.584014033564814738e+01 1.582747010030864310e+01 1.578385706018518420e+01 1.574094087577160295e+01 1.574036506558642046e+01 1.576189670138889021e+01 1.574581259645061770e+01 1.578010561342592410e+01 1.600603153935185219e+01 1.571827835648148053e+01 1.522966820987654479e+01 1.525416039737654295e+01 1.522234133873456940e+01 1.512096498842592496e+01 1.506139515817901220e+01
