1.995053255208333383e+02 1.995053255208333383e+02 1.997453409529321107e+02 2.009827869405864078e+02 2.033421812307098833e+02 2.038723992091049126e+02 2.041877488425925833e+02 2.043219864004629471e+02 2.043853052662037157e+02 2.044158666087962786e+02 2.044396932870370449e+02 2.044384780092592564e+02 2.044406269290123248e+02 2.044553264853394978e+02 2.044684601658950669e+02 2.044744362461419769e+02 2.044822077546296271e+02 2.044964096257716051e+02 2.045131582754629562e+02 2.045278100887345545e+02 2.045338387345678939e+02 2.045067115162037226e+02 2.044709355709876490e+02 2.044455680941357798e+02 2.044309157986111245e+02 2.044112644675925878e+02 2.043911395640432147e+02 2.043691483410493674e+02 2.043562538580247008e+02 2.043473181905864067e+02 2.043434452160493890e+02 2.043332870370370529e+02 2.043135050154320993e+02 2.043209080825617150e+02 2.043076929012345602e+02 2.043085638503086443e+02 2.043208482831790036e+02 2.043364245756172863e+02 2.043534428047839526e+02 2.043710050154321038e+02 2.044003009259259329e+02 2.044654967206789991e+02 2.043916377314814952e+02 2.042259948881172988e+02 2.040259823495370313e+02 2.038507016782407391e+02 2.035880676118827068e+02 2.033120818865740773e+02 2.031300458140432283e+02 2.029805367476851643e+02 2.033590745563271582e+02 2.036597588734567807e+02 2.037652811535493811e+02 2.038442881944444309e+02 2.039187466242284188e+02 2.040005073302469043e+02 2.040902811535493697e+02 2.040930642361111040e+02 2.041187471064814929e+02 2.041440258487654376e+02 2.041680430169753038e+02 2.041908743248456801e+02 2.042247280092592518e+02 2.043413662229938268e+02 2.043525361689814872e+02 2.043328800154320959e+02 2.043073847415123510e+02 2.042979296875000159e+02 2.042852252121913637e+02 2.042842327353394865e+02 2.042812953317901190e+02 2.042806920331790081e+02 2.043033627507716119e+02 2.043019396219135899e+02 2.042994507137345579e+02 2.043106978202160633e+02 2.043166541280864124e+02 2.043200390625000011e+02 2.043391198881172954e+02 2.043564158950617298e+02 2.043769902584876377e+02 2.043983101851851814e+02 2.044172246334876490e+02 2.044295380015431931e+02 2.044448765432098867e+02 2.044412456597222274e+02 2.044042968750000000e+02 2.043774946952160576e+02 2.043500877700617195e+02 2.043379832175926083e+02 2.043284727044753026e+02 2.043175279706790093e+02 2.043141907793209953e+02 2.043153809799382543e+02 2.042185455246913648e+02 2.042466594328703593e+02 2.042692853009259295e+02 2.042932499035493947e+02 2.042995500578703627e+02 2.043105512152777976e+02 2.043270679012345852e+02 2.043425043402777703e+02 2.043544618055555588e+02 2.043687779706790195e+02 2.043809452160493834e+02 2.043882682291666697e+02 2.043692115162037055e+02 2.043356679205246849e+02 2.043126181520061664e+02 2.042780738811728440e+02 2.042646923225308626e+02 2.042516700424382634e+02 2.042574416473765382e+02 2.042547154706790025e+02 2.042578120177469145e+02 2.042649103009259193e+02 2.042715576774691328e+02 2.042810233410494050e+02 2.042914501350308569e+02 2.043042717978395046e+02 2.043237630208333258e+02 2.043367558834876547e+02 2.043606983024691317e+02 2.043845163001543312e+02 2.043898963155864124e+02 2.044318132716049377e+02 2.044684606481481524e+02 2.044852097800925890e+02 2.044670452353394978e+02 2.044462466242283938e+02 2.044104634452160383e+02 2.043828578317901190e+02 2.043781992669753151e+02 2.043564115547839322e+02 2.043415909529321084e+02 2.043488488618827148e+02 2.043592544367283779e+02 2.043691097608024734e+02 2.043722882908950567e+02 2.043697487461419655e+02 2.043804417438271628e+02 2.043936289544753038e+02 2.044288551311728384e+02 2.044663609182098867e+02 2.044910074266975357e+02 2.045108010223765405e+02 2.045314834104938200e+02 2.045457470100308512e+02 2.045681973379629710e+02 2.045725467785493947e+02 2.045565354938271412e+02 2.045349151234568126e+02 2.045148572530864328e+02 2.045143094135802357e+02 2.045054701967592621e+02 2.045083916859567807e+02 2.044985281635802608e+02 2.045392529899691283e+02 2.045871981095679075e+02 2.046131915509259329e+02 2.046359809027777885e+02 2.046573273533950612e+02 2.046875188078703900e+02 2.047188932291666674e+02 2.047593812692901167e+02 2.047978216628086443e+02 2.048467336998456574e+02 2.048911086998456881e+02 2.049214790702160371e+02 2.049567737268518499e+02 2.049776953125000034e+02 2.049972231867284052e+02 2.049846011766975096e+02 2.049618262924382748e+02 2.049491739004629665e+02 2.049312519290123475e+02 2.049278129822531014e+02 2.049125434027777715e+02 2.049268542631172636e+02 2.049624146412037078e+02 2.049750154320987576e+02 2.049970206404320834e+02 2.050216536458333110e+02 2.050523316936728406e+02 2.050861058063271400e+02 2.051127985146604829e+02 2.053219063464506178e+02 2.053558622685185071e+02 2.053785431134259341e+02 2.054018079668209964e+02 2.054245360725308558e+02 2.054262596450617195e+02 2.053959804205246940e+02 2.053638710455247178e+02 2.053450993441358037e+02 2.053376282793209953e+02 2.053360165895061868e+02 2.053359900655864010e+02 2.053499459876543369e+02 2.053598476080246940e+02 2.053753785686728293e+02 2.053996185378086352e+02 2.054035199652777806e+02 2.054235932677469236e+02 2.054488069058641884e+02 2.054644497492284074e+02 2.054950487075617502e+02 2.055058564814814872e+02 2.055283405671296464e+02 2.055467066936728600e+02 2.055587649498456813e+02 2.055390668402777976e+02 2.055099156057098924e+02 2.054852642746913602e+02 2.054540359760802346e+02 2.054319092399691442e+02 2.054240962577160587e+02 2.053098331404320902e+02 2.053395235339506257e+02 2.053513599537037067e+02 2.053687649498456835e+02 2.053882209683642088e+02 2.054017100694444196e+02 2.054303906250000011e+02 2.054446923225308694e+02 2.054668315972222388e+02 2.054877961033950555e+02 2.055104619984567762e+02 2.055392790316358003e+02 2.055652507716049229e+02 2.055810079089506246e+02 2.055779118441358264e+02 2.055514573688271582e+02 2.055306283757716130e+02 2.055180714699073974e+02 2.055070577739197688e+02 2.055126562500000205e+02 2.055011463155863964e+02 2.055033304398148175e+02 2.055146561535493674e+02 2.055048640046296100e+02 2.055115432098765496e+02 2.055155729166666845e+02 2.055214197530864055e+02 2.055409471450617502e+02 2.055563054591049479e+02 2.055734129050925958e+02 2.055852092978394978e+02 2.056548037229938188e+02 2.057011877893518488e+02 2.057144806134259341e+02 2.056981954089506246e+02 2.056695765817901247e+02 2.056348365162037055e+02 2.056071879822530946e+02 2.055920404128086432e+02 2.055754460841049536e+02 2.055723254243827114e+02 2.055781925154320788e+02 2.055782016782407595e+02 2.055745302854938359e+02 2.055798143325617389e+02 2.055915012538580129e+02 2.056015128279320834e+02 2.056030931712963081e+02 2.056176649305555486e+02 2.056351943479938313e+02 2.056489530285493856e+02 2.056740200617284131e+02 2.056874667245370176e+02 2.056538382523148130e+02 2.056290316358024484e+02 2.056050352044753140e+02 2.055871542245370449e+02 2.055808854166666890e+02 2.055654113618826955e+02 2.055613797260802471e+02 2.055627464313271560e+02 2.054855217978395103e+02 2.055109466628086352e+02 2.055286516203703684e+02 2.055455550733024950e+02 2.055608275462963093e+02 2.055722328317901031e+02 2.055952367862654455e+02 2.056164284336419712e+02 2.056379456018518681e+02 2.056540253665123430e+02 2.056658087384259090e+02 2.056455782214506200e+02 2.056079909336419860e+02 2.055780131172839731e+02 2.055547694830246712e+02 2.055428954475308672e+02 2.055432296489197483e+02 2.055339853395061596e+02 2.055273606288580197e+02 2.055263425925926128e+02 2.055168696952160587e+02 2.055193648726851734e+02 2.055295707947530843e+02 2.055308772183641963e+02 2.055432672646604999e+02 2.055575617283950578e+02 2.055760667438271412e+02 2.055934919945987644e+02 2.056149045138888880e+02 2.056363532021604783e+02 2.056316396604938177e+02 2.055159268904320982e+02 2.055252874228395115e+02 2.055055767746913489e+02 2.054975376157407538e+02 2.054932011959876377e+02 2.054787239583333474e+02 2.054650930748456688e+02 2.054741739004629721e+02 2.054768224344135774e+02 2.054835966435184957e+02 2.054889930555555395e+02 2.054955946180555486e+02 2.055162012924382680e+02 2.055366816165123396e+02 2.055383294753086432e+02 2.055433887924382645e+02 2.055705680941357798e+02 2.055946151620370586e+02 2.056103814621913557e+02 2.056188961226851859e+02 2.056158887924382555e+02 2.055770187114197540e+02 2.055421199845679041e+02 2.055220114776234652e+02 2.055046291473765336e+02 2.054794936342592564e+02 2.054604566936728531e+02 2.054476210455246985e+02 2.054408887924382725e+02 2.054371807484567967e+02 2.054225236304012299e+02 2.052721961805555395e+02 2.053021315586419746e+02 2.053308950617283983e+02 2.053532301311728645e+02 2.053753559027777840e+02 2.053889838927469214e+02 2.054122468171296418e+02 2.054296556712963024e+02 2.054506862461419701e+02 2.054648567708333360e+02 2.054682228973765348e+02 2.054374638310185048e+02 2.054006973379629528e+02 2.053752391975308740e+02 2.053520486111111154e+02 2.053457523148148312e+02 2.053346006944444468e+02 2.053261419753086443e+02 2.053212350501543426e+02 2.053255063657407504e+02 2.053270828510802346e+02 2.053322202932098719e+02 2.053474107831790150e+02 2.053467438271605090e+02 2.053627107445987576e+02 2.053855714699074042e+02 2.054103964120370449e+02 2.054270461998456767e+02 2.054480623070987519e+02 2.054702859760802482e+02 2.054599951774691533e+02 2.054505232445987701e+02 2.054243123070987735e+02 2.054022858796296305e+02 2.053881987847222206e+02 2.053742105516975300e+02 2.053597545331790002e+02 2.053532817322530946e+02 2.053587128665123203e+02 2.053617568479938313e+02 2.053781307870370370e+02 2.053878988233024643e+02 2.053911964699074133e+02 2.054070413773148118e+02 2.054289385609567660e+02 2.054527435378086295e+02 2.054796055169753117e+02 2.055022694830246905e+02 2.055223914930555509e+02 2.055418576388888710e+02 2.055509423225308581e+02 2.055263667052469145e+02 2.054817356288580186e+02 2.054532296489197449e+02 2.054323075810185060e+02 2.054387938850308615e+02 2.054267201967592769e+02 2.054277483603395069e+02 2.054398461612654216e+02 2.054483579282407391e+02 2.054575978973765302e+02 2.054553457754629733e+02 2.054912413194444412e+02 2.055058622685185128e+02 2.055344801311728418e+02 2.055559201388888653e+02 2.055750800540123464e+02 2.055949503279321107e+02 2.055946691743827159e+02 2.056122236689814997e+02 2.056319936342592598e+02 2.056227020640432102e+02 2.055883839699073974e+02 2.055527199074074076e+02 2.055452912808642054e+02 2.055300805362654160e+02 2.055371315586419598e+02 2.055312099729938211e+02 2.055425091628086420e+02 2.055512905092592462e+02 2.055535431134259454e+02 2.055649537037037078e+02 2.055801292438271446e+02 2.055873244598765552e+02 2.055966343557098810e+02 2.056071850887345533e+02 2.056161660879629665e+02 2.056182860725308785e+02 2.056471474729938222e+02 2.056533376736111052e+02 2.056709601658950817e+02 2.056406510416666720e+02 2.054900617283950623e+02 2.055067245370370586e+02 2.055107899305555748e+02 2.055181438078703593e+02 2.055266136188271560e+02 2.055408868634259250e+02 2.055666531635802414e+02 2.055678833912037078e+02 2.055821638695987588e+02 2.055928510802469305e+02 2.056052228009259295e+02 2.056076861496913750e+02 2.056394396219135672e+02 2.056542255015432090e+02 2.056704243827160496e+02 2.056995138888889016e+02 2.057152874228395092e+02 2.057045577739197597e+02 2.056627199074073928e+02 2.056348625578703491e+02 2.056053795331790184e+02 2.055734384645061823e+02 2.055691488233024700e+02 2.055697087191358037e+02 2.055784895833333223e+02 2.055940682870370324e+02 2.056019598765432193e+02 2.056216049382716164e+02 2.056508564814814690e+02 2.056817742091049297e+02 2.058191820987654523e+02 2.058738768325617343e+02 2.059452136381172807e+02 2.060095809220678973e+02 2.060405709876543199e+02 2.060276851851851916e+02 2.059810754243827091e+02 2.059189192708333280e+02 2.058646527777777919e+02 2.058312528935184957e+02 2.058210652970678893e+02 2.058084722222222069e+02 2.058151022376543153e+02 2.058227874228394967e+02 2.058286159336419701e+02 2.058436496913580243e+02 2.058511000192901292e+02 2.058544034529321038e+02 2.058555632716049502e+02 2.058646754436728372e+02 2.058780618248456733e+02 2.058968065200617445e+02 2.059233960262345704e+02 2.059328018904321027e+02 2.059216758294753049e+02 2.058879706790123407e+02 2.058504755015432295e+02 2.058361033950617411e+02 2.058210812114197381e+02 2.058157503858024597e+02 2.058049310378086432e+02 2.056648678626543187e+02 2.057037475887345579e+02 2.057285334683641906e+02 2.057470563271604931e+02 2.057746547067901304e+02 2.058107040895061743e+02 2.058209886188271582e+02 2.058258482831789991e+02 2.058350342399691328e+02 2.058369347993827319e+02 2.058597911844135808e+02 2.058704484953703684e+02 2.058759881365740796e+02 2.058596788194444400e+02 2.058328375771604897e+02 2.058203115354938291e+02 2.058072231867284074e+02 2.057958396026234595e+02 2.057822231867284017e+02 2.057843586033950771e+02 2.057968137538580322e+02 2.058083931327160485e+02 2.058294415509259352e+02 2.058386935763888914e+02 2.058569777199074053e+02 2.058740297067901395e+02 2.058896899112654353e+02 2.059015306712963138e+02 2.059152174961419917e+02 2.059383777006172807e+02 2.059677454668209862e+02 2.060526244212963149e+02 2.060896161265432340e+02 2.060799633487654319e+02 2.060547969714505996e+02 2.060357908950617229e+02 2.060263290895061914e+02 2.060142674575617150e+02 2.059982204861111086e+02 2.059914019097222138e+02 2.059828308256172988e+02 2.059759596836419746e+02 2.059767235725308581e+02 2.059793653549382668e+02 2.059870548804012174e+02 2.060001750578703650e+02 2.060164332561728600e+02 2.060391464120370415e+02 2.060503925540123475e+02 2.060597960069444525e+02 2.060780844907407356e+02 2.060947844328703695e+02 2.060449705825617457e+02 2.060119429976851961e+02 2.060013252314814736e+02 2.059847415123456926e+02 2.059706100501543062e+02 2.059568952546296146e+02 2.059685358796296271e+02 2.059822786458333326e+02 2.059827666859567898e+02 2.059362287808641838e+02 2.059756476658950817e+02 2.060140417631172909e+02 2.060585108024691579e+02 2.061009765624999943e+02 2.061517038001543369e+02 2.061921484375000091e+02 2.062385484182098878e+02 2.062731722608024540e+02 2.062712852044753049e+02 2.062409452160493686e+02 2.062113396990740739e+02 2.061871653163580334e+02 2.061824141589506212e+02 2.061901359953703547e+02 2.061896103395061743e+02 2.062042452739197529e+02 2.062191835455246860e+02 2.062202314814814770e+02 2.062438532021604942e+02 2.062421079282407277e+02 2.062505743634259261e+02 2.062704841820987838e+02 2.063076316550925924e+02 2.063325993441358150e+02 2.063607074652777840e+02 2.063818465470678802e+02 2.064063126929012526e+02 2.063985633680555338e+02 2.063987446952160383e+02 2.063977826003086307e+02 2.064377565586419507e+02 2.064643272569444434e+02 2.064851818094136036e+02 2.064970182291666845e+02 2.065037663966049593e+02 2.065118373842592518e+02 2.065307060185185151e+02 2.065383256172839594e+02 2.065505772569444503e+02 2.065755762924382850e+02 2.066002584876543153e+02 2.066175501543209805e+02 2.066501051311728645e+02 2.066701856674382611e+02 2.066771715856481535e+02 2.066660300925925924e+02 2.066388334297839435e+02 2.066129407793209793e+02 2.066002030285493731e+02 2.065982725694444468e+02 2.066020298032407538e+02 2.066060021219135763e+02 2.066019290123456926e+02 2.066068397955247065e+02 2.066125289351851961e+02 2.066172294560185208e+02 2.066270949074074110e+02 2.066375467785493640e+02 2.066509958526234527e+02 2.066620191936728475e+02 2.066775704089506007e+02 2.067424686535493947e+02 2.067846701388888846e+02 2.067788994984567807e+02 2.067408728780864067e+02 2.067134592013889005e+02 2.066864009452160360e+02 2.066721730324074144e+02 2.066578891782407652e+02 2.066391386959876684e+02 2.066392785493827091e+02 2.066381896219135683e+02 2.066396513310185128e+02 2.066436660879629414e+02 2.066520558449074088e+02 2.066681838348765439e+02 2.066759346064814622e+02 2.067005811149691397e+02 2.067194999035494050e+02 2.067449580439814838e+02 2.067577300347222433e+02 2.067276803626543256e+02 2.066870191936728531e+02 2.066601793981481308e+02 2.066395553626543062e+02 2.066213729745370529e+02 2.066000057870370483e+02 2.065913488618827216e+02 2.065860243055555543e+02 2.065860956790123453e+02 2.065722063078703741e+02 2.064002985146604772e+02 2.064229369212962979e+02 2.064402782600308512e+02 2.064691401427469089e+02 2.064867105516975414e+02 2.064944815779321061e+02 2.065052025462962888e+02 2.065172299382716119e+02 2.065354007523148141e+02 2.065379576581790104e+02 2.065036443865740807e+02 2.064682812499999898e+02 2.064462225115740921e+02 2.064188522376543062e+02 2.064082532793210021e+02 2.063953930362654319e+02 2.063890268132716130e+02 2.063902203896604988e+02 2.063837958140432249e+02 2.063831645447531002e+02 2.063789945023148107e+02 2.063845466820987724e+02 2.064013310185185048e+02 2.064053997878086193e+02 2.064215793788580129e+02 2.064379600694444434e+02 2.064507798032407493e+02 2.064723095100308683e+02 2.064766970486111290e+02 2.064944304591049331e+02 2.064992689043209850e+02 2.064550665509259204e+02 2.064621778549382611e+02 2.064351866319444468e+02 2.064093706597222138e+02 2.063972950424382589e+02 2.063926533564814747e+02 2.063843952546296237e+02 2.063838223379629824e+02 2.063932754629629471e+02 2.064011033950617389e+02 2.064077758487654251e+02 2.064089482060185219e+02 2.064108251350308478e+02 2.064271431327160542e+02 2.064301374421296202e+02 2.064466401427469293e+02 2.064649016203703695e+02 2.064787229938271764e+02 2.065036381172839413e+02 2.065248755787036998e+02 2.065485315393518420e+02 2.065585980902777976e+02 2.065336530671296202e+02 2.065013662229938234e+02 2.064772260802469077e+02 2.064555955825617275e+02 2.064413570601851688e+02 2.064413165509259329e+02 2.064410296103395126e+02 2.064476586612654216e+02 2.064499271797839413e+02 2.063547796103395058e+02 2.063897704475308785e+02 2.063937302276234504e+02 2.064079412615740807e+02 2.064117814429012299e+02 2.064211935763889016e+02 2.064329412615740864e+02 2.064493388310185367e+02 2.064664612268518624e+02 2.064900573881172932e+02 2.064959321952160565e+02 2.064912239583333360e+02 2.064514809992284086e+02 2.064161665702160633e+02 2.063980811149691306e+02 2.063751239390432204e+02 2.063640779320987519e+02 2.063584625771605090e+02 2.063602174961419564e+02 2.063661873070987838e+02 2.063666266396604954e+02 2.063721460262345602e+02 2.063736024305555645e+02 2.063803322723765348e+02 2.063975564236110927e+02 2.064019945987654410e+02 2.064193238811728293e+02 2.064417399691357957e+02 2.064556862461419655e+02 2.064701437114197518e+02 2.065231249999999932e+02 2.065444516782407334e+02 2.064971141975308626e+02 2.064527440200617150e+02 2.064336125578703900e+02 2.064242698688271673e+02 2.064120539158950578e+02 2.064073326581790297e+02 2.064107826967592700e+02 2.063996407214505950e+02 2.063946103395061868e+02 2.063974184992283938e+02 2.064006548996913750e+02 2.064020307677469077e+02 2.064082783564814747e+02 2.064090330825617343e+02 2.064329007523148221e+02 2.064469511959876797e+02 2.064566931905864067e+02 2.064797202932098799e+02 2.064916555748456801e+02 2.065144449266975357e+02 2.065117356288580197e+02 2.064828443287036919e+02 2.064498529128086375e+02 2.064146778549382759e+02 2.064000125385802562e+02 2.063903703703703627e+02 2.063841517168209805e+02 2.063794873649691226e+02 2.063767418981481399e+02 2.062709587191357912e+02 2.062955926890432181e+02 2.063119333526234698e+02 2.063264776234567819e+02 2.063482860725308683e+02 2.063650863233024779e+02 2.063764467592592666e+02 2.063889375964506314e+02 2.064140673225308831e+02 2.064363469328703786e+02 2.064585040509259386e+02 2.064805666473765484e+02 2.065125009645061596e+02 2.065103129822530832e+02 2.064736212384259204e+02 2.064516271219135888e+02 2.064290813078703763e+02 2.064249599729938041e+02 2.064193422067901338e+02 2.064226056134259295e+02 2.064144159915123566e+02 2.064203602430555691e+02 2.064349040316357957e+02 2.064347550154321027e+02 2.064260672260802494e+02 2.064393856095679212e+02 2.064496773726851870e+02 2.064720543981481455e+02 2.064955295138888971e+02 2.065067607060185253e+02 2.065232701581790025e+02 2.066141690779321038e+02 2.066546821952160542e+02 2.066733082561728452e+02 2.066659886188271571e+02 2.066268803047839526e+02 2.065943248456790116e+02 2.065728515625000057e+02 2.065701017554012253e+02 2.065551576967592666e+02 2.065510691550925912e+02 2.065580840084876684e+02 2.065618947723765473e+02 2.065609080825617241e+02 2.065538093171296339e+02 2.065482392939814815e+02 2.065574672067901076e+02 2.065705256558641736e+02 2.065916063850308717e+02 2.066434408757716028e+02 2.066749734760802255e+02 2.066969820601851779e+02 2.067111342592592678e+02 2.067014670138889016e+02 2.066694439621913659e+02 2.066440755208333258e+02 2.066330709876543210e+02 2.066245124421296282e+02 2.066183106674382657e+02 2.066286111111110984e+02 2.066270756172839640e+02 2.065721874999999841e+02 2.065966068672839526e+02 2.066137900270061607e+02 2.066328153935185128e+02 2.066444502314814997e+02 2.066705709876543153e+02 2.066946513310185196e+02 2.067204267939814883e+02 2.067363083526234391e+02 2.067693258101851939e+02 2.067871759259259079e+02 2.068001803626543165e+02 2.068045548804012412e+02 2.067767713155864158e+02 2.067235136959876627e+02 2.066639959490740921e+02 2.066123297646604726e+02 2.065796595293209919e+02 2.065418653549382668e+02 2.065070669367283926e+02 2.064845326967592598e+02 2.064480087770061800e+02 2.064171079282407391e+02 2.063843706597222081e+02 2.063683622685184957e+02 2.063578235918209884e+02 2.063694873649691317e+02 2.063808087384259125e+02 2.063843576388889005e+02 2.063957026427469259e+02 2.064043229166666720e+02 2.063085243055555509e+02 2.063604774305555338e+02 2.063879687499999989e+02 2.063876808449074076e+02 2.063553573495370586e+02 2.063318431712962990e+02 2.063098562885802494e+02 2.063131693672839617e+02 2.063258207947530707e+02 2.063352835648148300e+02 2.063558227237654421e+02 2.063847347608024734e+02 2.064145138888888766e+02 2.064432484567901440e+02 2.064676345486111302e+02 2.064920625964506371e+02 2.065193320794753049e+02 2.065540027006172750e+02 2.065898321759259204e+02 2.066314718364197631e+02 2.066529137731481569e+02 2.066827228009259443e+02 2.067041097608024529e+02 2.067380975115740966e+02 2.067549541859567910e+02 2.067395447530864203e+02 2.066999701003086329e+02 2.066791218171296407e+02 2.066541796875000045e+02 2.066551591435185173e+02 2.066571479552468986e+02 2.066858097029320902e+02 2.067310720486111109e+02 2.067507465277777783e+02 2.067638097993827273e+02 2.067769077932098867e+02 2.067801422646604976e+02 2.067893388310185117e+02 2.068050511188271514e+02 2.068188739390432147e+02 2.068267240547839378e+02 2.068387355324074122e+02 2.068577642746913625e+02 2.068693561921296293e+02 2.068750612461419678e+02 2.068498080632715812e+02 2.067981881751543369e+02 2.067618836805555702e+02 2.067477652391975198e+02 2.067424971064814940e+02 2.067528462577160440e+02 2.067515813078703673e+02 2.067561979166666788e+02 2.067560633680555497e+02 2.067581553819444196e+02 2.067741247106481524e+02 2.067858830054012174e+02 2.067999575617284052e+02 2.068172743055555429e+02 2.068474021026234482e+02 2.069035884452160587e+02
4.363425925925925979e-03 4.363425925925925979e-03 4.585262345679011996e-03 7.745466820987654058e-03 3.582272376543210041e-02 6.546730324074075125e-02 8.864438657407408551e-02 9.471547067901234240e-02 9.439863040123455673e-02 9.370177469135802795e-02 9.328076774691357320e-02 8.972608024691358652e-02 8.972366898148147196e-02 8.933738425925925875e-02 8.759500385802468370e-02 8.846161265432098131e-02 9.081983024691357709e-02 9.102961033950617009e-02 9.467206790123457172e-02 9.451533564814813826e-02 9.486930941358025227e-02 9.296826774691357986e-02 8.379243827160494373e-02 8.040412808641976550e-02 7.755931712962962910e-02 7.267746913580246104e-02 7.013261959876543328e-02 6.689959490740740589e-02 6.948157793209876198e-02 6.697916666666667296e-02 6.318383487654320729e-02 6.377363040123457116e-02 7.779851466049382547e-02 3.764564043209876754e-02 4.128086419753086711e-02 5.396846064814814908e-02 5.974295910493827161e-02 6.171006944444443892e-02 6.102864583333333925e-02 6.582754629629629373e-02 6.639467592592591949e-02 7.264467592592592504e-02 6.155044367283950962e-02 4.819492669753085851e-02 3.315538194444444392e-02 2.317418981481481413e-02 1.692177854938271830e-02 1.238956404320987713e-02 9.017650462962961688e-03 8.626543209876543633e-03 1.676408179012345637e-02 3.067853009259259231e-02 3.369743441358024477e-02 3.730951003086419721e-02 3.870997299382716167e-02 4.219859182098766037e-02 4.661410108024691135e-02 4.249951774691358014e-02 4.178578317901233963e-02 4.237027391975308616e-02 4.538628472222221849e-02 4.403115354938271636e-02 4.692515432098765676e-02 7.383873456790124301e-02 4.330680941358024810e-02 3.779658564814814686e-02 4.123022762345679437e-02 4.063802083333333676e-02 4.070023148148147613e-02 4.008294753086420054e-02 3.894724151234568027e-02 3.938078703703703359e-02 4.026813271604938460e-02 3.943721064814814659e-02 3.861448688271604951e-02 3.883439429012345429e-02 3.783034336419753563e-02 3.913821373456789765e-02 3.924672067901234518e-02 4.006558641975308671e-02 4.276282793209876948e-02 4.214891975308641958e-02 4.457127700617283944e-02 4.667004243827160836e-02 4.799045138888888978e-02 4.825665509259259578e-02 4.625868055555555636e-02 4.189091435185185452e-02 4.063416280864197427e-02 4.037037037037036896e-02 3.869405864197530964e-02 3.815875771604938099e-02 3.903549382716049038e-02 3.990596064814815047e-02 6.367717978395061318e-02 3.518422067901234851e-02 3.614920910493826800e-02 3.829957561728395549e-02 3.788966049382715834e-02 3.943576388888889173e-02 3.945601851851851527e-02 4.030381944444444420e-02 4.374903549382715834e-02 4.364535108024691912e-02 4.317949459876543189e-02 4.555700231481481927e-02 4.507330246913580224e-02 4.252845293209876754e-02 4.139226466049382436e-02 3.896026234567901564e-02 3.883294753086419249e-02 3.861593364197530437e-02 3.930217978395061929e-02 3.807243441358024866e-02 3.766396604938272025e-02 3.851851851851852138e-02 3.748263888888889173e-02 3.759789737654321146e-02 3.909191743827160337e-02 4.034625771604938294e-02 4.025800540123456589e-02 4.252700617283950574e-02 4.327690972222222182e-02 4.449363425925926402e-02 4.445939429012345928e-02 7.515625000000000777e-02 4.663194444444444114e-02 4.514901620370369989e-02 4.483217592592592809e-02 4.249565972222222460e-02 4.138454861111111327e-02 3.989679783950617065e-02 3.890287422839506376e-02 3.995949074074073987e-02 4.020688657407407024e-02 3.731867283950617009e-02 3.834104938271604840e-02 3.818913966049382325e-02 3.797646604938271359e-02 3.725212191358024533e-02 3.896267361111110938e-02 3.788966049382715834e-02 3.896122685185185452e-02 4.122781635802468675e-02 4.256799768518518962e-02 4.245756172839505738e-02 4.302758487654320674e-02 4.346788194444444614e-02 4.526861496913580502e-02 4.573977623456790265e-02 4.560619212962963021e-02 4.443865740740740589e-02 4.268036265432098575e-02 4.143229166666666935e-02 3.999662422839506126e-02 4.045090663580246798e-02 6.554928626543209125e-02 3.615692515432098603e-02 3.772424768518518184e-02 3.890962577160493596e-02 4.004484953703704025e-02 4.034432870370370516e-02 4.124131944444444503e-02 4.156442901234567999e-02 4.275848765432099102e-02 4.406925154320987664e-02 4.573061342592592976e-02 4.926842206790123246e-02 4.818913966049383213e-02 5.069492669753086073e-02 5.065489969135802961e-02 5.301842206790123579e-02 5.375048225308641514e-02 5.118152006172839441e-02 4.915412808641975162e-02 4.774787808641975384e-02 4.646363811728394799e-02 4.656298225308642263e-02 4.644241898148147862e-02 4.658034336419752952e-02 4.733458719135803100e-02 4.861834490740740700e-02 4.732494212962962826e-02 4.798321759259259467e-02 5.008535879629629622e-02 5.162471064814815047e-02 8.968171296296297001e-02 5.570071373456789848e-02 5.560908564814814881e-02 5.959153163580246243e-02 6.291859567901234018e-02 6.342978395061728281e-02 6.109133873456790154e-02 5.752459490740740450e-02 5.517602237654321146e-02 5.531684027777777901e-02 5.542438271604938071e-02 5.529465663580247076e-02 5.476900077160493790e-02 5.621238425925926402e-02 5.498987268518518851e-02 5.695987654320987248e-02 5.722897376543209513e-02 5.762393904320987914e-02 6.062741126543209902e-02 6.312692901234567833e-02 6.431230709876542551e-02 6.394241898148148029e-02 6.652874228395061484e-02 6.947675540123457449e-02 7.068142361111111327e-02 6.730709876543208847e-02 6.690682870370370794e-02 6.323013117283950157e-02 6.192949459876543467e-02 5.997492283950616593e-02 5.677999614197530576e-02 9.328800154320987525e-02 5.773148148148148084e-02 5.346643518518518629e-02 5.563078703703703415e-02 5.772569444444444753e-02 5.636911651234567666e-02 5.929205246913579752e-02 5.961130401234567694e-02 6.161120756172839413e-02 6.186824845679012030e-02 6.587046682098764150e-02 6.771846064814814048e-02 7.116319444444445252e-02 7.129967206790123468e-02 7.271894290123456783e-02 6.821952160493827133e-02 6.501398533950616954e-02 6.020206404320987970e-02 6.079909336419753174e-02 6.100742669753086295e-02 5.820939429012345762e-02 5.769048996913580390e-02 5.884548611111111577e-02 5.932436342592592449e-02 6.045621141975308921e-02 6.106095679012346622e-02 6.048755787037036341e-02 5.968460648148147391e-02 6.134211033950616454e-02 6.370273919753086100e-02 6.537856867283950435e-02 1.131385030864197477e-01 7.313898533950617675e-02 7.021074459876543161e-02 7.440441743827160004e-02 6.849247685185184953e-02 6.315152391975309421e-02 6.057002314814815408e-02 5.903115354938271581e-02 5.641830632716049454e-02 5.556809413580247187e-02 5.529706790123456450e-02 5.571035879629629428e-02 5.667245370370370405e-02 5.534047067901234213e-02 5.505738811728395216e-02 5.466242283950617509e-02 5.635416666666666352e-02 5.917438271604938405e-02 6.067997685185184953e-02 6.043740354938271359e-02 6.292631172839505127e-02 6.513406635802468370e-02 6.031298225308641403e-02 5.616512345679012391e-02 5.429687500000000139e-02 5.094569830246913761e-02 5.096884645061728475e-02 5.185860339506172950e-02 5.205246913580247048e-02 4.966772762345678799e-02 8.522038966049383379e-02 5.225260416666666075e-02 4.841579861111110911e-02 5.042872299382716167e-02 5.093364197530864113e-02 5.128375771604937877e-02 5.304783950617283916e-02 5.477478780864197816e-02 5.685522762345679437e-02 5.834249614197530714e-02 5.810185185185184897e-02 5.568721064814814714e-02 5.426070601851851888e-02 5.135995370370370627e-02 4.817901234567901342e-02 4.658661265432098575e-02 4.851900077160493929e-02 4.561197916666666352e-02 4.666570216049382991e-02 4.496913580246914011e-02 4.313319830246913761e-02 4.313802083333333204e-02 4.285542052469135804e-02 4.496768904320987137e-02 4.610484182098766037e-02 4.679060570987653850e-02 4.835455246913580862e-02 4.738040123456790237e-02 4.912326388888889339e-02 5.107783564814814825e-02 5.255545910493827216e-02 8.505208333333333370e-02 5.056664737654320563e-02 4.403211805555555525e-02 4.374807098765431945e-02 4.290798611111111549e-02 4.229021990740740311e-02 4.063705632716049787e-02 4.105999228395061651e-02 4.099295910493827577e-02 4.107735339506173033e-02 3.893566743827159976e-02 4.096402391975308838e-02 4.045283564814814575e-02 4.187596450617284138e-02 4.324893904320988025e-02 4.527584876543210013e-02 4.615258487654320951e-02 4.603298611111111133e-02 4.854600694444444198e-02 4.960262345679012502e-02 4.773533950617284138e-02 4.669608410493827216e-02 4.453173225308641736e-02 4.124855324074074014e-02 4.025848765432098880e-02 4.053771219135802323e-02 3.911554783950617342e-02 3.719714506172839413e-02 3.818721064814814548e-02 3.806375385802469175e-02 3.765287422839506265e-02 6.015625000000000139e-02 3.610435956790123552e-02 3.474151234567901536e-02 3.761718749999999611e-02 3.895061728395061984e-02 3.980758101851852165e-02 3.969810956790123524e-02 4.079957561728395077e-02 4.433883101851851527e-02 4.264756944444444975e-02 4.467833719135802517e-02 4.353491512345678688e-02 4.092062114197531075e-02 3.865306712962962576e-02 3.701051311728394827e-02 3.638888888888888729e-02 3.509114583333333010e-02 3.554060570987654238e-02 3.628761574074073487e-02 3.476562500000000139e-02 3.668113425925926402e-02 3.451774691358024810e-02 3.349103009259259134e-02 3.583912037037036841e-02 3.656491126543209846e-02 3.863618827160493485e-02 3.891637731481481510e-02 4.016396604938271553e-02 3.994212962962963298e-02 4.161361882716049787e-02 7.039882330246913233e-02 3.828076774691357986e-02 3.404513888888888867e-02 3.555844907407407912e-02 3.342399691358025060e-02 3.262008101851851527e-02 3.165702160493826661e-02 3.072771990740741019e-02 3.180603780864197511e-02 3.128472222222222071e-02 3.083429783950617648e-02 3.201485339506172922e-02 3.310860339506172673e-02 3.376832561728394799e-02 3.482590663580246992e-02 3.508680555555555164e-02 3.764998070987654599e-02 3.821132330246913150e-02 3.955922067901234546e-02 3.946277006172839441e-02 4.076099537037037451e-02 3.914641203703703859e-02 3.567370756172839885e-02 3.477382330246913539e-02 3.328800154320987748e-02 3.286651234567900676e-02 3.062934027777777790e-02 3.081645447530864321e-02 3.036024305555555525e-02 3.041087962962962798e-02 3.033757716049382755e-02 5.502507716049383213e-02 2.967399691358024727e-02 3.088975694444444364e-02 3.272858796296296280e-02 3.353057484567901342e-02 3.349344135802469202e-02 3.469810956790123774e-02 3.582175925925926152e-02 3.580391589506173172e-02 3.791039737654321173e-02 3.693383487654321173e-02 3.706790123456790015e-02 3.519868827160493874e-02 3.323350694444444225e-02 3.285445601851851721e-02 3.200665509259259522e-02 3.199025848765432029e-02 3.219280478395061817e-02 3.154224537037036979e-02 3.164496527777777707e-02 3.204041280864197011e-02 3.134452160493827327e-02 3.254243827160493985e-02 3.385320216049382547e-02 3.525318287037036702e-02 3.475935570987654516e-02 3.614052854938271803e-02 3.533227237654320424e-02 3.561969521604937960e-02 3.881992669753086406e-02 3.538290895061728392e-02 5.688657407407407551e-02 3.067467206790122983e-02 2.989004629629629650e-02 3.179687500000000222e-02 2.980420524691358014e-02 3.014853395061728447e-02 3.111689814814815047e-02 3.119020061728395091e-02 3.070023148148148112e-02 3.256365740740740922e-02 3.376494984567901536e-02 3.394097222222221960e-02 3.387490354938271775e-02 3.475260416666666602e-02 3.625819830246913150e-02 3.755353009259258801e-02 3.806857638888889311e-02 3.808400848765432223e-02 3.482687114197530881e-02 3.334008487654321201e-02 3.192322530864197261e-02 2.937307098765432056e-02 2.910831404320987637e-02 2.921440972222222321e-02 2.911651234567901037e-02 2.833236882716049301e-02 2.972849151234568249e-02 2.949942129629629789e-02 3.050057870370369989e-02 3.053771219135802822e-02 5.603539737654320702e-02 3.251832561728394688e-02 3.348476080246913511e-02 3.664882330246913705e-02 3.855902777777777540e-02 3.846595293209877087e-02 3.589023919753086406e-02 3.186487268518518184e-02 3.170090663580246715e-02 2.927951388888888964e-02 2.888647762345679035e-02 2.903356481481481413e-02 2.836709104938271719e-02 2.927951388888888964e-02 2.790412808641975356e-02 2.894579475308642000e-02 2.942949459876543356e-02 2.979890046296295933e-02 3.062596450617284180e-02 2.948832947530864376e-02 3.177179783950617037e-02 3.304783950617284222e-02 3.448206018518518851e-02 3.578703703703703387e-02 3.399691358024691662e-02 3.183352623456790070e-02 2.844810956790123219e-02 2.739438657407407274e-02 2.629870756172839399e-02 2.513937114197531061e-02 2.560040509259259300e-02 4.512249228395062012e-02 2.328993055555555330e-02 2.344618055555555344e-02 2.375964506172839608e-02 2.516059027777777651e-02 2.688464506172839538e-02 2.536603009259259106e-02 2.610291280864197525e-02 2.641396604938271719e-02 2.887683256172839455e-02 2.915075231481481510e-02 3.046103395061728475e-02 3.119116512345678979e-02 2.944347993827160781e-02 2.770929783950617370e-02 2.426311728395061720e-02 2.307870370370370544e-02 2.375675154320987595e-02 2.271942515432098450e-02 2.246817129629629511e-02 2.267119984567901245e-02 2.353732638888889062e-02 2.223283179012345775e-02 2.305169753086419582e-02 2.404417438271605131e-02 2.494405864197531131e-02 2.564670138888889075e-02 2.565345293209876643e-02 2.650800540123456756e-02 2.706548996913580099e-02 2.892746913580247076e-02 5.336709104938271164e-02 2.788966049382715987e-02 2.795814043209876587e-02 2.569782021604938294e-02 2.527102623456790181e-02 2.539592978395061734e-02 2.381172839506172714e-02 2.344618055555555344e-02 2.277102623456790306e-02 2.327980324074073806e-02 2.299045138888888840e-02 2.310763888888888937e-02 2.361207561728394938e-02 2.485146604938271581e-02 2.469569830246913511e-02 2.574701003086419734e-02 2.674720293209876393e-02 2.906973379629629664e-02 2.973861882716049426e-02 2.690055941358024394e-02 2.927999614197530909e-02 2.806954089506173006e-02 2.679880401234567902e-02 2.517409336419753133e-02 2.384934413580246798e-02 2.291956018518518517e-02 2.361593364197530839e-02 2.371720679012345734e-02 2.463493441358024713e-02 2.441068672839506043e-02 4.372733410493827300e-02 2.424720293209876518e-02 2.497010030864197511e-02 2.543354552469135818e-02 2.707851080246913636e-02 2.737606095679012350e-02 2.748456790123456756e-02 3.002411265432099186e-02 3.054108796296296433e-02 3.026331018518518823e-02 2.875771604938271581e-02 2.683207947530864487e-02 2.657407407407407288e-02 2.571807484567901342e-02 2.675202546296296183e-02 2.711564429012345775e-02 2.590084876543210027e-02 2.737798996913580127e-02 2.624758873456790181e-02 2.768759645061728489e-02 2.778067129629629636e-02 2.709587191358024671e-02 2.679639274691358181e-02 2.887490354938271331e-02 2.936390817901234768e-02 3.182677469135802850e-02 3.224681712962963048e-02 3.364390432098765538e-02 3.114969135802468994e-02 3.129050925925926097e-02 3.075038580246913789e-02 5.307291666666667102e-02 2.977382330246913789e-02 2.943769290123456756e-02 3.021122685185185022e-02 2.994405864197530534e-02 3.130979938271604562e-02 3.297019675925925986e-02 3.382233796296296724e-02 3.365740740740740672e-02 3.514322916666666463e-02 3.547598379629629539e-02 3.740306712962963159e-02 3.834297839506173311e-02 4.041956018518518684e-02 4.300925925925926097e-02 4.170042438271605312e-02 3.905044367283950352e-02 3.555796682098765621e-02 3.501060956790123802e-02 3.549382716049383213e-02 3.663146219135802323e-02 3.518904320987654294e-02 3.691936728395062151e-02 3.777922453703703998e-02 3.924382716049382852e-02 3.813753858024691162e-02 3.858169367283950657e-02 3.916473765432098436e-02 4.221595293209876726e-02 4.210744598765431973e-02 4.266155478395061706e-02 8.057966820987655376e-02 4.743007330246913622e-02 4.453317901234567916e-02 4.313030478395061401e-02 4.178964120370370211e-02 3.900896990740741060e-02 3.829861111111110966e-02 3.870370370370369850e-02 3.866271219135802850e-02 3.794270833333333176e-02 3.904899691358024866e-02 3.812885802469136165e-02 4.012972608024691773e-02 3.884211033950617925e-02 4.085310570987654710e-02 4.253906250000000222e-02 4.345293209876543300e-02 4.548948688271604868e-02 4.482928240740740450e-02 4.884982638888889228e-02 4.805410879629629789e-02 4.493827160493826800e-02 4.240499614197530687e-02 3.829427083333333121e-02 3.941550925925926124e-02 3.905237268518518823e-02 3.848379629629629373e-02 3.712625385802469091e-02 3.739583333333333648e-02 3.788483796296296391e-02 6.842785493827160948e-02 4.044560185185185064e-02 3.659047067901234629e-02 3.807918595679012086e-02 4.105661651234568388e-02 4.293209876543210152e-02 4.503472222222222598e-02 4.378665123456790265e-02 4.539592978395062123e-02 4.679205246913580724e-02 4.514371141975308949e-02 4.258873456790122913e-02 3.847511574074074375e-02 3.820312499999999750e-02 3.623553240740740727e-02 3.563319830246913789e-02 3.580777391975308727e-02 3.552710262345679104e-02 3.516010802469136248e-02 3.394386574074073626e-02 3.691840277777778262e-02 3.617717978395061651e-02 3.758487654320987609e-02 3.789207175925925902e-02 3.744598765432099324e-02 3.935474537037036979e-02 4.136959876543210013e-02 4.099295910493827577e-02 4.191454475308641764e-02 4.496479552469136165e-02 4.673659336419753313e-02 8.435570987654321395e-02 4.723717206790123413e-02 4.021508487654320424e-02 4.115306712962962798e-02 3.921971450617284249e-02 3.841869212962963076e-02 3.854118441358024560e-02 3.645592206790123496e-02 3.853153935185185675e-02 3.914448302469135388e-02 4.012827932098764899e-02 3.915075231481481011e-02 3.973331404320987886e-02 4.313946759259259384e-02 4.052951388888888923e-02 4.205488040123456922e-02 4.500964506172839413e-02 4.403260030864197816e-02 4.716001157407407468e-02 4.793161651234567611e-02 5.126060956790123163e-02 5.255208333333333259e-02 5.271942515432098686e-02 4.908371913580246437e-02 4.652681327160494013e-02 4.688319830246913400e-02 4.437451774691357487e-02 4.355902777777777984e-02 4.399160879629629428e-02 4.470534336419752786e-02 4.278067129629629928e-02 7.837336033950617620e-02 4.480806327160493513e-02 4.364342206790123441e-02 4.541811342592592948e-02 4.650125385802469230e-02 4.797935956790123913e-02 4.911072530864197400e-02 4.987075617283950185e-02 5.433931327160494013e-02 5.544608410493827300e-02 5.830922067901234823e-02 5.796440972222222099e-02 5.470437885802469091e-02 5.209635416666667102e-02 5.033950617283950574e-02 4.766059027777778262e-02 4.565682870370370294e-02 4.607590663580247298e-02 4.578751929012345873e-02 4.802662037037037229e-02 4.806664737654321035e-02 4.929639274691358097e-02 4.816358024691357737e-02 4.830343364197530603e-02 5.078607253086420137e-02 5.189429012345678910e-02 5.393084490740740478e-02 5.510079089506172978e-02 5.667390046296296585e-02 5.893518518518518073e-02 1.048664158950617237e-01 6.745129243827160948e-02 5.964940200617283028e-02 5.453221450617284222e-02 5.006028163580246437e-02 4.843412422839506182e-02 4.625048225308642236e-02 4.605324074074073487e-02 4.536940586419753452e-02 4.709683641975308949e-02 4.706934799382716389e-02 4.599585262345678993e-02 4.542631172839506348e-02 4.644531250000000222e-02 4.760802469135802517e-02 4.815682870370370516e-02 4.888888888888888451e-02 4.998408564814815075e-02 5.253086419753086322e-02 5.274209104938271803e-02 5.449170524691358125e-02 5.674913194444444753e-02 6.071277006172838553e-02 5.540316358024691135e-02 5.149691358024691135e-02 4.714457947530863863e-02 4.730806327160493735e-02 4.472704475308642014e-02 4.608410493827160698e-02 4.247685185185184897e-02 4.318817515432098880e-02 7.426456404320988525e-02 4.455391589506172562e-02 4.066936728395061790e-02 4.218701774691357986e-02 4.291377314814814881e-02 4.366222993827160309e-02 4.328269675925925514e-02 4.699266975308642041e-02 4.959201388888889034e-02 4.989679783950617259e-02 4.999276620370370072e-02 5.210985725308642236e-02 5.296682098765431723e-02 5.465663580246913483e-02 5.153597608024691051e-02 4.618393132716049065e-02 4.539737654320987609e-02 4.202401620370370405e-02 4.192274305555555164e-02 4.178192515432099102e-02 4.031057098765432334e-02 4.006992669753086517e-02 4.326195987654321562e-02 4.333767361111111327e-02 4.187307098765432473e-02 4.168402777777777818e-02 4.284143518518518379e-02 4.352189429012345151e-02 4.489438657407407440e-02 4.665316358024691051e-02 4.905237268518518323e-02 8.896363811728395798e-02 5.316984953703703803e-02 5.144531249999999972e-02 5.194782021604937849e-02 4.865354938271605062e-02 4.676456404320988164e-02 4.258487654320987359e-02 4.171923225308641486e-02 4.112413194444444753e-02 4.056809413580246548e-02 4.090952932098765316e-02 4.018518518518518490e-02 4.016010802469135998e-02 3.974874614197530798e-02 4.105999228395061651e-02 4.107397762345679076e-02 4.074797453703703914e-02 4.234953703703703276e-02 4.412953317901234518e-02 4.698013117283950796e-02 5.020254629629629373e-02 5.152970679012345429e-02 5.053771219135802517e-02 4.876398533950616898e-02 4.191358024691357875e-02 4.037519290123456339e-02 3.919126157407407801e-02 3.918836805555555441e-02 3.662808641975308366e-02 3.678915895061728863e-02 6.557243441358025227e-02 3.781491126543209957e-02 3.556761188271605201e-02 3.571373456790123690e-02 3.674479166666667213e-02 3.764756944444443837e-02 3.777343749999999972e-02 3.984326774691358125e-02 4.198784722222222154e-02 4.255738811728394799e-02 4.395013503086420137e-02 4.477623456790123802e-02 4.609326774691357986e-02 4.552951388888888673e-02 3.973427854938271775e-02 3.536168981481481455e-02 3.360677083333333398e-02 3.134837962962962882e-02 2.968123070987654238e-02 2.906684027777777651e-02 2.762972608024691357e-02 2.888840663580246812e-02 2.680652006172839358e-02 2.670669367283950643e-02 2.487075617283950393e-02 2.512586805555555580e-02 2.604214891975308727e-02 2.639853395061728461e-02 2.827353395061728281e-02 2.840567129629629692e-02 2.789689429012345845e-02 5.210117669753085851e-02 2.940441743827160517e-02 2.842255015432098783e-02 2.887586805555555566e-02 2.666907793209876559e-02 2.408805941358024838e-02 2.262297453703703692e-02 2.121093749999999889e-02 2.114583333333333245e-02 2.089072145061728406e-02 2.128954475308642014e-02 2.091386959876543120e-02 2.142795138888888701e-02 2.170235339506172700e-02 2.124614197530864251e-02 2.126736111111111188e-02 2.202642746913580432e-02 2.413001543209876421e-02 2.526379243827160670e-02 2.641878858024691162e-02 2.702690972222222127e-02 2.949556327160493888e-02 3.007716049382716181e-02 2.912278163580247006e-02 2.984085648148147862e-02 2.803578317901234476e-02 2.521749614197530895e-02 2.392457561728395313e-02 2.365885416666666657e-02 2.405333719135802420e-02 2.239679783950617245e-02 4.179253472222221877e-02 2.095679012345678938e-02 2.310956790123456714e-02 2.418740354938271608e-02 2.473861882716049329e-02 2.404755015432098741e-02 2.483458719135802489e-02 2.524450231481481510e-02 2.672405478395061679e-02 2.604745370370370461e-02 2.843798225308642041e-02 2.929542824074074167e-02 2.988811728395061873e-02 3.073832947530864140e-02 3.002700617283950504e-02 2.661265432098765607e-02 2.540316358024691246e-02 2.594618055555555566e-02 2.444106867283950615e-02 2.561487268518518670e-02 2.569540895061728225e-02 2.641927083333333107e-02 2.631655092592592726e-02 2.662953317901234698e-02 2.605468749999999972e-02 2.585551697530864487e-02 2.695505401234567916e-02 2.906105324074073973e-02 2.922646604938271622e-02 3.227719907407407274e-02
2.335466820987654568e+00 2.335466820987654568e+00 2.317788869598765622e+00 1.961876446759259096e+00 1.621519579475308559e+00 1.541358024691358075e+00 1.585940393518518565e+00 1.606592881944444384e+00 1.624160879629629628e+00 1.629329668209876569e+00 1.643162615740740629e+00 1.643759162808641872e+00 1.639655671296296191e+00 1.644502797067901367e+00 1.641882716049382740e+00 1.655850694444444438e+00 1.664545235339506268e+00 1.666695601851851949e+00 1.671674864969135976e+00 1.675799093364197523e+00 1.671979166666666572e+00 1.663057966820987721e+00 1.652395833333333508e+00 1.651776138117283965e+00 1.654674961419753121e+00 1.652754147376543248e+00 1.657320119598765240e+00 1.645516975308642049e+00 1.653308738425925961e+00 1.643134645061728349e+00 1.640624035493827071e+00 1.641674382716049374e+00 1.738651138117284001e+00 1.685899884259259185e+00 1.683625096450617420e+00 1.692212094907407316e+00 1.691975790895061671e+00 1.696704764660493803e+00 1.695177951388888937e+00 1.698320794753086505e+00 1.703182388117283841e+00 1.738108121141975326e+00 1.688654513888888875e+00 1.604105902777777759e+00 1.536720679012345547e+00 1.485231963734567895e+00 1.427663483796296484e+00 1.386140046296296280e+00 1.346425540123456832e+00 1.330182291666666572e+00 1.401182002314814712e+00 1.477599344135802628e+00 1.518596643518518530e+00 1.544107349537036988e+00 1.565256558641975326e+00 1.590509741512345698e+00 1.613266300154320820e+00 1.583891300154320891e+00 1.584252989969135772e+00 1.589914158950617384e+00 1.595023630401234627e+00 1.596258198302469067e+00 1.604951774691357969e+00 1.587703028549382722e+00 1.551204185956790216e+00 1.550111882716049383e+00 1.562728105709876525e+00 1.565866126543209891e+00 1.570979456018518627e+00 1.583755787037036900e+00 1.581757812500000027e+00 1.581924672067901216e+00 1.594683641975308763e+00 1.600579185956790162e+00 1.602997685185185039e+00 1.606296778549382687e+00 1.604803722993827231e+00 1.608060860339506348e+00 1.609017650462962967e+00 1.623627507716049356e+00 1.619315682870370532e+00 1.620343846450617464e+00 1.626159818672839652e+00 1.632423321759259416e+00 1.631956018518518459e+00 1.633118730709876676e+00 1.627088638117283992e+00 1.616638695987654417e+00 1.617453221450617207e+00 1.611559606481481444e+00 1.611737075617283965e+00 1.610665509259259220e+00 1.612183159722222259e+00 1.618685378086419879e+00 1.570610532407407556e+00 1.556171392746913629e+00 1.565856481481481488e+00 1.576044077932098775e+00 1.587653356481481648e+00 1.601271701388888857e+00 1.613076292438271553e+00 1.615101755401234573e+00 1.619327739197530924e+00 1.617316743827160508e+00 1.614937307098765373e+00 1.611479070216049303e+00 1.606678722993827080e+00 1.602135898919753165e+00 1.599951292438271500e+00 1.599062017746913700e+00 1.594293016975308674e+00 1.602147472993827204e+00 1.610939429012345547e+00 1.606651234567901376e+00 1.605160108024691334e+00 1.608149112654321033e+00 1.610798128858024647e+00 1.605655864197530924e+00 1.608000096450617145e+00 1.609138213734567779e+00 1.612217399691358022e+00 1.615955343364197550e+00 1.628761574074074181e+00 1.621853780864197736e+00 1.628953510802469085e+00 1.586574074074074137e+00 1.565148533950617260e+00 1.579447820216049347e+00 1.582389081790123608e+00 1.580952932098765418e+00 1.589309413580246799e+00 1.589862557870370452e+00 1.588638599537036900e+00 1.586728877314814712e+00 1.596285686728394992e+00 1.599240933641975504e+00 1.603745177469135808e+00 1.608713831018518503e+00 1.613795814043209820e+00 1.608853202160493767e+00 1.616107253086419782e+00 1.614684124228394912e+00 1.619889564043209829e+00 1.628212287808642023e+00 1.632962480709876596e+00 1.634068769290123457e+00 1.631585648148148104e+00 1.628338155864197612e+00 1.630189043209876676e+00 1.623118730709876445e+00 1.622096836419752997e+00 1.608951099537037077e+00 1.599608892746913424e+00 1.598562403549382616e+00 1.603293788580246959e+00 1.599743441358024709e+00 1.597624421296296449e+00 1.565891685956790180e+00 1.591071566358024825e+00 1.603146701388888928e+00 1.612961033950617296e+00 1.618355034722222197e+00 1.627857831790123555e+00 1.625641878858024691e+00 1.625572916666666812e+00 1.632306616512345876e+00 1.636858121141975264e+00 1.646650752314814836e+00 1.651829668209876534e+00 1.659017168209876436e+00 1.659426601080246977e+00 1.658560956790123608e+00 1.650918692129629717e+00 1.638884066358024860e+00 1.629790219907407467e+00 1.625646701388888893e+00 1.630257523148147980e+00 1.631941068672839501e+00 1.635327932098765480e+00 1.645520351080246968e+00 1.649042727623456717e+00 1.649857735339506304e+00 1.648811246141975273e+00 1.647505787037037095e+00 1.658122106481481506e+00 1.658009741512345592e+00 1.641784336419753076e+00 1.604862557870370354e+00 1.618514660493827195e+00 1.635429687499999840e+00 1.644569830246913611e+00 1.651885609567901092e+00 1.647500964506172894e+00 1.638256655092592551e+00 1.637883873456790207e+00 1.633831983024691237e+00 1.635471161265432016e+00 1.646603491512345752e+00 1.647028838734567957e+00 1.645628375771604812e+00 1.647429591049382580e+00 1.660360725308641872e+00 1.657707851080246764e+00 1.662010030864197407e+00 1.666993152006172929e+00 1.667933545524691308e+00 1.669259741512345796e+00 1.673854166666666643e+00 1.678469810956790154e+00 1.678288483796296360e+00 1.677670235339506100e+00 1.667396315586419764e+00 1.651511863425925819e+00 1.640934606481481373e+00 1.640427758487654319e+00 1.641813271604938285e+00 1.654088541666666856e+00 1.642112750771604901e+00 1.604188850308642111e+00 1.608509355709876631e+00 1.620031828703703880e+00 1.629336902006172760e+00 1.632686149691358057e+00 1.643845003858024567e+00 1.649076485339506348e+00 1.660658757716049427e+00 1.660079571759259132e+00 1.660758584104938151e+00 1.663689236111111081e+00 1.669427565586419693e+00 1.674148341049382704e+00 1.669598283179012377e+00 1.651550925925925783e+00 1.644962384259259336e+00 1.637528452932098588e+00 1.639741994598765240e+00 1.644515817901234689e+00 1.642217881944444624e+00 1.650363618827160428e+00 1.658298128858024745e+00 1.657699170524691512e+00 1.665611979166666812e+00 1.667098765432098784e+00 1.666880304783950661e+00 1.669170524691357960e+00 1.667835165895061644e+00 1.671946855709876445e+00 1.669059124228395197e+00 1.661558159722222205e+00 1.620864197530864192e+00 1.631176697530864139e+00 1.640052083333333188e+00 1.628015046296296120e+00 1.624501832561728421e+00 1.632864101080246932e+00 1.627985628858024780e+00 1.629447820216049392e+00 1.634280478395061520e+00 1.640545428240740788e+00 1.651573109567901376e+00 1.651917920524691441e+00 1.654626736111111107e+00 1.659244791666666607e+00 1.665051118827160392e+00 1.663639081790123431e+00 1.669904031635802477e+00 1.674251543209876569e+00 1.678286554783950724e+00 1.678274980709876463e+00 1.678004436728395055e+00 1.649205246913580281e+00 1.640862750771604928e+00 1.636620370370370336e+00 1.641261091820987561e+00 1.641578896604938276e+00 1.641713445216049339e+00 1.645091145833333268e+00 1.651046971450617296e+00 1.640286940586419773e+00 1.606171392746913673e+00 1.615116222993827177e+00 1.634786361882716088e+00 1.646096643518518476e+00 1.648092206790123360e+00 1.647413676697530915e+00 1.659063464506172814e+00 1.665157214506172823e+00 1.668130787037036988e+00 1.670817901234567859e+00 1.661276523919753112e+00 1.646559606481481364e+00 1.639280478395061635e+00 1.642386670524691228e+00 1.641771797839506108e+00 1.647190875771604945e+00 1.651414448302469085e+00 1.662015335648148184e+00 1.659984085648148255e+00 1.660413290895061733e+00 1.660617283950617251e+00 1.656334394290123413e+00 1.654685570987654453e+00 1.660858892746913673e+00 1.663399884259259220e+00 1.670685763888889008e+00 1.676368152006172840e+00 1.685907118055555376e+00 1.684681712962962985e+00 1.687428626543209909e+00 1.647785976080246906e+00 1.597138792438271615e+00 1.599859182098765320e+00 1.615304783950617384e+00 1.623758680555555500e+00 1.632700617283950661e+00 1.635801986882716053e+00 1.639612268518518601e+00 1.646367669753086460e+00 1.649510995370370381e+00 1.647364969135802548e+00 1.659368248456790207e+00 1.665766782407407387e+00 1.674540895061728429e+00 1.679346064814814632e+00 1.675785108024691272e+00 1.677521219135802433e+00 1.673383969907407343e+00 1.680025077160493652e+00 1.686738522376543203e+00 1.685486111111111240e+00 1.671264467592592728e+00 1.655654899691358040e+00 1.644892939814814881e+00 1.646663773148148158e+00 1.653224826388888902e+00 1.654412133487654257e+00 1.646818576388888955e+00 1.657428626543209882e+00 1.656069155092592560e+00 1.658420621141975415e+00 1.638903838734568019e+00 1.615671296296296244e+00 1.630841049382716124e+00 1.647587287808641943e+00 1.645530960648148300e+00 1.651270736882715973e+00 1.656239872685185244e+00 1.667514949845678940e+00 1.671257233796296315e+00 1.669904996141975184e+00 1.664929108796296298e+00 1.651673418209876676e+00 1.634560667438271553e+00 1.631978684413580183e+00 1.631575520833333348e+00 1.637294077932098801e+00 1.639881365740740726e+00 1.654614679783950493e+00 1.657958140432098659e+00 1.652002314814814632e+00 1.655105131172839528e+00 1.648178530092592631e+00 1.651548996913580147e+00 1.653210358796296298e+00 1.660983314043209980e+00 1.662871817129629504e+00 1.670183738425925934e+00 1.668841145833333428e+00 1.664978780864197372e+00 1.672959587191357844e+00 1.636181520061728456e+00 1.593795331790123448e+00 1.595668402777777883e+00 1.607184124228395072e+00 1.606124614197530720e+00 1.613415798611111063e+00 1.621505111882715955e+00 1.631815682870370487e+00 1.631649305555555651e+00 1.633891300154320936e+00 1.642879533179012252e+00 1.649830246913580156e+00 1.647016300154320989e+00 1.650377604166666679e+00 1.655663097993827160e+00 1.660421971450617207e+00 1.662825520833333348e+00 1.668471739969135781e+00 1.673300540123456859e+00 1.671630979938271588e+00 1.669883294753086389e+00 1.659645061728395099e+00 1.642870852623456779e+00 1.633248939043209891e+00 1.634439139660493812e+00 1.642546296296296449e+00 1.633887924382716017e+00 1.639212962962962816e+00 1.648227719907407351e+00 1.655858410493827204e+00 1.653693094135802344e+00 1.632418981481481568e+00 1.614167148919753103e+00 1.634226466049382820e+00 1.643200231481481532e+00 1.647236689814814747e+00 1.656745273919753236e+00 1.659338348765432070e+00 1.662438753858024532e+00 1.664088059413580289e+00 1.662717013888888928e+00 1.654820601851851869e+00 1.648297646604938160e+00 1.629307966820987552e+00 1.636653645833333393e+00 1.636641589506173000e+00 1.642716049382716204e+00 1.650859375000000018e+00 1.651288097993827364e+00 1.653862847222222321e+00 1.656930459104938302e+00 1.664846161265432167e+00 1.663996431327160463e+00 1.675674672067901216e+00 1.678101851851851789e+00 1.680884934413580112e+00 1.667875192901234760e+00 1.662173032407407325e+00 1.667735821759259274e+00 1.668480902777777608e+00 1.675743152006172965e+00 1.667525559413580272e+00 1.627738233024691228e+00 1.599172453703703756e+00 1.604861593364197647e+00 1.617628761574074092e+00 1.618525270061728305e+00 1.624884259259259167e+00 1.642256944444444589e+00 1.644490258487654399e+00 1.645125385802469031e+00 1.649244791666666599e+00 1.648512731481481364e+00 1.648510320216049374e+00 1.652178819444444446e+00 1.658028549382716044e+00 1.663018422067901181e+00 1.670102237654320865e+00 1.666353684413580227e+00 1.672879050925925926e+00 1.648299575617283796e+00 1.639940682870370425e+00 1.632061149691357960e+00 1.640542534722222223e+00 1.642508198302469191e+00 1.638501157407407316e+00 1.639360532407407423e+00 1.644684124228394939e+00 1.648177565586419924e+00 1.648384452160493785e+00 1.656788194444444473e+00 1.656802662037037077e+00 1.638356481481481497e+00 1.613790991512345840e+00 1.639259741512345547e+00 1.654903549382715999e+00 1.662652874228395028e+00 1.664007040895061795e+00 1.648935667438271579e+00 1.633513695987654168e+00 1.627775848765432132e+00 1.631203703703703711e+00 1.635929783950617278e+00 1.643428337191358057e+00 1.645724826388888840e+00 1.651713927469135701e+00 1.656377314814814872e+00 1.658175636574074074e+00 1.649452642746913611e+00 1.659608410493827124e+00 1.660476948302469280e+00 1.662623456790123466e+00 1.663449556327160517e+00 1.671570698302468960e+00 1.672383294753086336e+00 1.671673418209876472e+00 1.674249614197530933e+00 1.661592399691357969e+00 1.644130015432098801e+00 1.637651909722222188e+00 1.634748263888888831e+00 1.638728298611111134e+00 1.642894965277777786e+00 1.634344618055555420e+00 1.623321759259259256e+00 1.637670717592592640e+00 1.640369405864197550e+00 1.653016975308642111e+00 1.656637731481481524e+00 1.651598186728394868e+00 1.653380594135802628e+00 1.659595871913580156e+00 1.663735050154321105e+00 1.663274498456790207e+00 1.672931134259259212e+00 1.675455729166666741e+00 1.671336323302469173e+00 1.662743055555555571e+00 1.654162808641975291e+00 1.649188368055555465e+00 1.647149402006172769e+00 1.636922260802469165e+00 1.641999903549382855e+00 1.655620659722222276e+00 1.654836516203703756e+00 1.656020929783950768e+00 1.662493248456790251e+00 1.666068672839506215e+00 1.662167727623456992e+00 1.664632040895061671e+00 1.672547743055555536e+00 1.678803047839506180e+00 1.674604552469135976e+00 1.680512635030864343e+00 1.646399980709876587e+00 1.621294849537036953e+00 1.627732928240740673e+00 1.626705729166666670e+00 1.624398630401234556e+00 1.635158179012345725e+00 1.638201678240740700e+00 1.631852334104938240e+00 1.638761574074073968e+00 1.650203993055555651e+00 1.650951485339506197e+00 1.654476755401234511e+00 1.652542920524691317e+00 1.658765432098765480e+00 1.662199074074073968e+00 1.668584104938271695e+00 1.669596354166666741e+00 1.673792920524691308e+00 1.683585551697530880e+00 1.673188657407407520e+00 1.675309606481481417e+00 1.659043692129629655e+00 1.651815682870370283e+00 1.651401427469135763e+00 1.640626446759259283e+00 1.635004822530864210e+00 1.634474344135802504e+00 1.643399402006172849e+00 1.644530285493827071e+00 1.659631076388888848e+00 1.643350694444444260e+00 1.632939332561728296e+00 1.650088252314814818e+00 1.654334490740740904e+00 1.675426793981481532e+00 1.675248842592592657e+00 1.686306423611111160e+00 1.694287229938271633e+00 1.699717399691357933e+00 1.681427951388889008e+00 1.662850115740740709e+00 1.653589891975308701e+00 1.651495466820987579e+00 1.660506847993827195e+00 1.669640721450617260e+00 1.674974922839506108e+00 1.678532021604938196e+00 1.677321566358024540e+00 1.674758873456789976e+00 1.687208236882715928e+00 1.689513888888888760e+00 1.686960841049382820e+00 1.680028935185185368e+00 1.690746045524691432e+00 1.693134162808642040e+00 1.707255497685185253e+00 1.711968557098765276e+00 1.708879243827160499e+00 1.700631751543209891e+00 1.690915798611111187e+00 1.684134837962962816e+00 1.669481577932098837e+00 1.641821469907407405e+00 1.653943383487654240e+00 1.661811824845679020e+00 1.666467496141975424e+00 1.673914448302469049e+00 1.677203896604938294e+00 1.672624421296296404e+00 1.672067418981481479e+00 1.685831404320987659e+00 1.692676022376543132e+00 1.695303819444444304e+00 1.701618441358024647e+00 1.712175443672839581e+00 1.712334104938271651e+00 1.695384355709876445e+00 1.679248649691358120e+00 1.668571084104938151e+00 1.673966531635802557e+00 1.675501060956790189e+00 1.676161265432098757e+00 1.682130111882715884e+00 1.692454668209876445e+00 1.692478780864197452e+00 1.693154417438271553e+00 1.689886670524691326e+00 1.693126929012345627e+00 1.702416570216049418e+00 1.701884162808642076e+00 1.706783854166666670e+00 1.710051118827160543e+00 1.691734664351851825e+00 1.664011381172839421e+00 1.662362557870370461e+00 1.654988425925925988e+00 1.656680652006172760e+00 1.655599440586419835e+00 1.660943769290123440e+00 1.671850405092592640e+00 1.670934606481481399e+00 1.679900655864197567e+00 1.684423225308641969e+00 1.679057677469135701e+00 1.686438078703703880e+00 1.688131269290123360e+00 1.692045717592592480e+00 1.691123649691357977e+00 1.701162229938271597e+00 1.707439718364197612e+00 1.707272858796296200e+00 1.708991126543209838e+00 1.693271122685185093e+00 1.682442611882716044e+00 1.679007523148148051e+00 1.669768518518518485e+00 1.674719810956790012e+00 1.675008680555555740e+00 1.685775462962963100e+00 1.687183159722222214e+00 1.694753086419753085e+00 1.687388117283950661e+00 1.657226080246913424e+00 1.626947820216049445e+00 1.639955150462963029e+00 1.659882330246913673e+00 1.670569058641975468e+00 1.672553530092592444e+00 1.677121431327160517e+00 1.683690682870370381e+00 1.690707465277777821e+00 1.687305169753086531e+00 1.674089023919753227e+00 1.660254147376543088e+00 1.647208719135802468e+00 1.649111689814814818e+00 1.649880883487654160e+00 1.644062499999999982e+00 1.652839988425925943e+00 1.665937017746913495e+00 1.663207465277777741e+00 1.667243923611110956e+00 1.670756655092592524e+00 1.682611400462963092e+00 1.688732638888888804e+00 1.689894868827160668e+00 1.697104070216049365e+00 1.706657503858024727e+00 1.712563175154321105e+00 1.712898823302469120e+00 1.712702064043209793e+00 1.717204378858024683e+00 1.719908371913580147e+00 1.671352719907407414e+00 1.611938175154321140e+00 1.614518229166666652e+00 1.628000578703703516e+00 1.634030671296296200e+00 1.651519579475308808e+00 1.653502604166666723e+00 1.659716917438271544e+00 1.659278067129629664e+00 1.667645640432098730e+00 1.671914544753086540e+00 1.674656153549382687e+00 1.675776427469135799e+00 1.687996238425925943e+00 1.688058449074074208e+00 1.691000675154320954e+00 1.689765142746913584e+00 1.696686921296296280e+00 1.704069733796296449e+00 1.704089988425925961e+00 1.705925443672839492e+00 1.709699556327160419e+00 1.696588541666666616e+00 1.685880594135802379e+00 1.682411747685185199e+00 1.676817129629629699e+00 1.673756751543209909e+00 1.675023630401234476e+00 1.685715181327160472e+00 1.695462962962962949e+00 1.692084780092592444e+00 1.678620756172839457e+00 1.651375868055555696e+00 1.662565586419753272e+00 1.674320505401234671e+00 1.680788483796296306e+00 1.680021219135802379e+00 1.686865837191358075e+00 1.691721643518518503e+00 1.694088541666666670e+00 1.698721064814814996e+00 1.703249903549382660e+00 1.699103973765432096e+00 1.684888117283950493e+00 1.671068672839506108e+00 1.663000578703703880e+00 1.660540123456790251e+00 1.654777199074074057e+00 1.669373070987654417e+00 1.679348476080246844e+00 1.689789737654320945e+00 1.686141010802469031e+00 1.691708622685185182e+00 1.685527584876543195e+00 1.691572627314814836e+00 1.698913966049382829e+00 1.700373263888888875e+00 1.699230806327160392e+00 1.697771990740740700e+00 1.709262152777777821e+00 1.703945312499999920e+00 1.686443865740740788e+00 1.646417824074073888e+00 1.639615644290123520e+00 1.630875289351851887e+00 1.631549479166666705e+00 1.637820698302469236e+00 1.642110821759259265e+00 1.646845582561728305e+00 1.660473090277777786e+00 1.664752121913580352e+00 1.665262827932098677e+00 1.666394675925925828e+00 1.673405189043209784e+00 1.677927758487654408e+00 1.682460455246913567e+00 1.688300540123456761e+00 1.696072048611111160e+00 1.701218171296296156e+00 1.704115547839506029e+00 1.709517264660493696e+00 1.705529513888888848e+00 1.703376736111110956e+00 1.707386188271605043e+00 1.684857253086419648e+00 1.668752411265432167e+00 1.660741222993827204e+00 1.662828896604938267e+00 1.667683256172839412e+00 1.673484760802468996e+00 1.679131944444444580e+00 1.677502411265431981e+00 1.667262731481481408e+00 1.631721161265432096e+00 1.636530671296296369e+00 1.646892361111111036e+00 1.657565586419753156e+00 1.663479938271605008e+00 1.671336805555555527e+00 1.675813560956790127e+00 1.691244695216049365e+00 1.690518904320987614e+00 1.693735050154320909e+00 1.692234760802469040e+00 1.693499710648148193e+00 1.684732349537036988e+00 1.675298032407407600e+00 1.655481770833333144e+00 1.655089216820987641e+00 1.655923514660493812e+00 1.661582754629629788e+00 1.668396026234568064e+00 1.667038966049382731e+00 1.676066743827160588e+00 1.682088155864197576e+00 1.681728877314814907e+00 1.684497492283950626e+00 1.685519386574074074e+00 1.689167631172839412e+00 1.692207754629629468e+00 1.696137635030864343e+00 1.701072530864197407e+00 1.707341820987654302e+00 1.679955150462963065e+00 1.651230709876543301e+00 1.661363811728394868e+00 1.666683545524691334e+00 1.659213927469135763e+00 1.650266685956790047e+00 1.646773244598765285e+00 1.659167631172839608e+00 1.668033371913580254e+00 1.674400559413580236e+00 1.673919270833333472e+00 1.672235243055555376e+00 1.682564139660493785e+00 1.681702835648148264e+00 1.678420621141975433e+00 1.687633101851851780e+00 1.692738233024691397e+00 1.702909432870370443e+00 1.708991608796296191e+00 1.711298225308641952e+00 1.718927951388888875e+00 1.715810667438271597e+00 1.703209394290123413e+00 1.686489197530864237e+00 1.682687596450617384e+00 1.671902970679012279e+00 1.668405189043209891e+00 1.670548804012345512e+00 1.680580150462962941e+00 1.677922935956790207e+00 1.665653935185185119e+00 1.637522665895061680e+00 1.645522762345679180e+00 1.662997202932098739e+00 1.668816068672839492e+00 1.673758680555555545e+00 1.679553915895061644e+00 1.685791859567901341e+00 1.695916280864197656e+00 1.691822434413580156e+00 1.700094039351851771e+00 1.702602719907407414e+00 1.698084490740740859e+00 1.690996817129629681e+00 1.669456500771604901e+00 1.644546199845679180e+00 1.641067226080246799e+00 1.645776909722222348e+00 1.645014467592592400e+00 1.644881847993827195e+00 1.648328510802469005e+00 1.651993152006172805e+00 1.647149402006172769e+00 1.648600501543209917e+00 1.650332272376543008e+00 1.653527681327160437e+00 1.660028452932098775e+00 1.668625096450617296e+00 1.666771797839506020e+00 1.675293692129629752e+00 1.682775848765432070e+00 1.634874614197530995e+00 1.624000289351851700e+00 1.641276041666666741e+00 1.634070216049382740e+00 1.627120949074074119e+00 1.615071373456790083e+00 1.611786265432098908e+00 1.618893711419753023e+00 1.629221161265432150e+00 1.636594328703703694e+00 1.636568769290123404e+00 1.650828510802469173e+00 1.656769386574074021e+00 1.667613329475308603e+00 1.671875964506172929e+00 1.668808834876543301e+00 1.674740065586419746e+00 1.684140624999999947e+00 1.686116898148148024e+00 1.685751832561728447e+00 1.691076388888888893e+00 1.691749614197531004e+00 1.691898148148148096e+00 1.697835165895061671e+00 1.695833333333333304e+00 1.681168016975308488e+00 1.656970003858024620e+00 1.647851080246913513e+00 1.649960937499999947e+00 1.655285493827160392e+00 1.666903935185185093e+00 1.650142264660493741e+00 1.639660493827160392e+00 1.657092013888888937e+00 1.655729648919753272e+00 1.669374035493827124e+00 1.669510995370370399e+00 1.681072530864197612e+00 1.686754918981481444e+00 1.694346547067901332e+00 1.699353298611111063e+00 1.694262635030864272e+00 1.701576485339506117e+00 1.699999035493827249e+00 1.695972704475308568e+00 1.682309027777777688e+00 1.664623842592592551e+00 1.651758777006172796e+00 1.657635513117283965e+00 1.667205825617283921e+00 1.678329475308641960e+00 1.679844232253086433e+00 1.683971354166666767e+00 1.683307773919753059e+00 1.687314814814814712e+00 1.685348186728395037e+00 1.692063560956790225e+00 1.697119502314814676e+00 1.704194637345679109e+00 1.703274016203703667e+00 1.718149594907407485e+00
