1.983075144675925969e+02 1.983014925733024540e+02 1.982249344135802573e+02 1.979753877314815043e+02 1.979624599729938268e+02 1.979928067129629596e+02 1.980198910108024677e+02 1.981163020833333519e+02 1.983083420138888755e+02 1.985671151620370267e+02 1.988662755594135945e+02 1.991093803047839685e+02 1.993117756558642100e+02 1.995172583912037112e+02 1.997304002700617502e+02 2.005304547646605045e+02 2.006309307484567910e+02 2.006909567901234652e+02 2.007280213155864317e+02 2.007776162229938279e+02 2.007703206983024700e+02 2.007957788387345488e+02 2.008750057870370540e+02 2.009172313850308740e+02 2.015163503086419610e+02 2.017614988425926015e+02 2.011853819444444298e+02 1.997074508101851791e+02 1.988859321952160428e+02 1.985060103202160633e+02 1.984259852430555497e+02 1.981959490740740648e+02 1.981984558256172875e+02 1.982025110918209805e+02 1.982630647183642054e+02 1.982705271026234755e+02 1.981895920138888698e+02 1.981339694251543335e+02 1.981663020833333348e+02 1.983167491319444196e+02 1.985212774884259090e+02 1.987340123456790195e+02 1.989544536072531002e+02 1.991746219135802676e+02 1.993910411844135808e+02 1.996063035300925890e+02 1.998244936342592553e+02 2.000564882330246803e+02 2.002931910686728543e+02 2.005547839506172636e+02 2.008303134645061903e+02 2.011243653549382771e+02 2.014012784529321038e+02 2.016801494984567853e+02 2.019645635609567762e+02 2.021759606481481626e+02 2.018869762731481501e+02 2.006594830246913546e+02 1.992194082754629676e+02 1.988699811921296146e+02 1.987293822337963149e+02 1.987365755208333269e+02 1.990104340277777624e+02 1.990490808256172954e+02 1.991203920717592553e+02 1.991365210262345897e+02 1.990604586226851893e+02 1.989786660879629778e+02 1.989796127507716221e+02 1.990286993634259147e+02 1.991130507330246928e+02 1.992311414930555600e+02 1.994014202353394865e+02 1.996199517746913443e+02 1.998783439429012390e+02 2.001654243827160542e+02 2.004608622685185253e+02 2.007669970100308774e+02 2.010157976466049377e+02 2.012180449459876570e+02 2.014224541859567807e+02 2.016452059220679018e+02 2.018950530478394967e+02 2.020987495177469100e+02 2.021161140046296509e+02 2.013641005979938257e+02 1.996652015817901145e+02 1.989544550540123566e+02 1.987421846064814872e+02 1.987281775655864067e+02 1.987968103780864055e+02 1.989241628086419666e+02 1.991239824459876502e+02 1.995311853780864055e+02 1.994673871527777749e+02 1.993254836998456767e+02 1.992357532793209884e+02 1.992654745370370222e+02 1.993804967206790195e+02 1.995686983989197643e+02 1.997868557098765336e+02 2.000215528549382498e+02 2.002496204668209998e+02 2.004656385030864101e+02 2.006648620756172932e+02 2.008374059606481410e+02 2.010253120177468986e+02 2.012359987461419735e+02 2.014434770447530809e+02 2.016549035493827091e+02 2.018716536458333337e+02 2.021383801118827250e+02 2.024018749999999898e+02 2.023643513695987792e+02 2.014870423418209953e+02 1.997508400848765291e+02 1.992066951195987770e+02 1.989704812885802312e+02 1.988586159336419712e+02 1.987871971450617252e+02 1.987356442901234459e+02 1.987688025655864124e+02 1.988253679591049377e+02 1.988218127893518385e+02 1.986296817129629630e+02 1.986381192129629767e+02 1.987108468364197336e+02 1.988986540316358003e+02 1.991406447723765609e+02 1.994120476466049183e+02 1.996825024112654319e+02 1.999502594521605090e+02 2.002000130208333246e+02 2.004564385609567978e+02 2.006892182677469236e+02 2.008866160300925969e+02 2.010909616126543256e+02 2.013128028549382691e+02 2.015297265625000023e+02 2.017618595679012117e+02 2.020113792438271503e+02 2.022809592013888960e+02 2.023746185378086295e+02 2.016207672646604863e+02 1.998186742862654341e+02 1.990096431327160360e+02 1.987253423996913568e+02 1.986362336033950555e+02 1.986023302469135672e+02 1.985742365933641906e+02 1.986379865933641895e+02 1.987397902199074053e+02 1.987845963541666663e+02 1.987553718171296282e+02 1.987398133680555645e+02 1.989063734567901349e+02 1.990205372299382702e+02 1.992020351080246883e+02 1.994533883101851757e+02 1.997258858989197279e+02 2.000036154513888960e+02 2.002941020447530889e+02 2.005566367669752879e+02 2.008011530671296327e+02 2.010510734953703604e+02 2.012801552854938336e+02 2.015034813850308524e+02 2.017488141396604817e+02 2.020097622492284017e+02 2.023202777777777612e+02 2.026115576774691363e+02 2.028626268325617445e+02 2.026451326195987690e+02 2.013749908371913762e+02 1.997194844714506416e+02 1.993313913001543369e+02 1.991765152391975278e+02 1.991735923032407243e+02 1.992246932870370415e+02 1.993476191165123623e+02 1.994766589506172636e+02 1.995091975308641850e+02 1.994223013117284040e+02 1.993261945408950453e+02 1.992894989390431988e+02 1.993632166280864055e+02 1.997473881172839469e+02 1.998509693287037123e+02 1.999836173804012276e+02 2.001756553819444662e+02 2.004052372685185048e+02 2.006022834683642202e+02 2.007883637152777681e+02 2.009645616319444343e+02 2.011142148919753083e+02 2.012780825617283824e+02 2.014492496141975266e+02 2.016724170524691431e+02 2.019133709490740500e+02 2.021607325424382680e+02 2.020638078703703684e+02 2.010395751350308728e+02 1.991500535300925776e+02 1.985067250192901440e+02 1.982753737461419803e+02 1.981845346257715903e+02 1.981637307098765461e+02 1.982195037615740603e+02 1.983521320408950714e+02 1.984227281057098651e+02 1.983595707947530968e+02 1.982322212577160485e+02 1.981859601658950680e+02 1.982406645447530877e+02 1.983896320408950658e+02 1.986058902391975209e+02 1.988313994984567898e+02 1.994759673996913705e+02 1.995510079089505950e+02 1.996605309606481455e+02 1.998035763888888710e+02 1.999531577932098969e+02 2.000974300733024904e+02 2.002540774498456813e+02 2.004252961033950555e+02 2.006340108989197688e+02 2.008522574266975198e+02 2.010886448688271457e+02 2.003047646604938450e+02 1.980892896412036919e+02 1.973119203317901338e+02 1.969551856674382861e+02 1.967903964120370404e+02 1.966715866126543233e+02 1.965382465277777726e+02 1.965123765432098821e+02 1.965757773919752935e+02 1.965724599729938404e+02 1.965143721064814883e+02 1.964688377700617252e+02 1.965391382137345602e+02 1.967098239776234436e+02 1.969478375771604988e+02 1.972020138888888710e+02 1.975046074459876593e+02 1.977600718557098674e+02 1.980452488425925992e+02 1.986727276234567796e+02 1.987506076388888800e+02 1.988699435763888914e+02 1.990233063271604976e+02 1.991948640046296362e+02 1.993903149112654205e+02 1.995943499228395126e+02 1.998340258487654353e+02 2.001000024112654216e+02 2.003209582368827171e+02 2.000789993248456824e+02 1.985163425925925935e+02 1.965553954475308558e+02 1.961783969907407652e+02 1.960081876929012310e+02 1.959443446180555384e+02 1.958940282600308649e+02 1.958754914158950555e+02 1.959713787615740728e+02 1.960758752893518420e+02 1.961162591628086602e+02 1.961134485918209975e+02 1.961636574074074133e+02 1.962957397762345693e+02 1.965257600308642054e+02 1.968337866512345897e+02 1.971669362461419723e+02 1.975082503858024836e+02 1.978118238811728418e+02 1.981202792245370290e+02 1.983690301890432295e+02 1.990292872299382907e+02 1.991254475308641929e+02 1.992667221257716221e+02 1.994636337770061800e+02 1.996810402199074019e+02 1.999410469714506178e+02 2.002480873842592644e+02 2.005730386766975357e+02 2.008441946373456801e+02 2.006623837770061698e+02 1.993050192901234539e+02 1.974807315779320902e+02 1.970663126929012208e+02 1.968870076195987622e+02 1.968467983217592518e+02 1.968657291666666538e+02 1.969604591049382805e+02 1.971311718750000068e+02 1.972235869984567955e+02 1.971933608217592564e+02 1.971212543402777726e+02 1.971278790509259125e+02 1.972460382908950578e+02 1.974318754822530764e+02 1.976669704861110972e+02 1.979440711805555395e+02 1.981922627314814633e+02 1.984303940007716278e+02 1.986563411458333519e+02 1.988807884837962945e+02 1.990617496141975096e+02 1.995915171682098617e+02 1.996662104552469259e+02 1.997583154899691351e+02 1.999287147955247121e+02 2.001417119984567705e+02 2.003826557677469111e+02 2.004558410493827125e+02 1.997602319637345545e+02 1.978228264853395046e+02 1.968174956597222263e+02 1.963816468942901281e+02 1.963874667245370347e+02 1.964691222993826898e+02 1.966497632137345590e+02 1.967914636381172784e+02 1.968124353780864055e+02 1.967241348379629642e+02 1.966894815779320993e+02 1.967468335262345533e+02 1.969154542824074099e+02 1.971415277777777817e+02 1.974140031828703741e+02 1.977055603780864317e+02 1.979875419560185321e+02 1.982329253472222206e+02 1.984581254822530809e+02 1.986857788387345636e+02 1.989158183834876752e+02 1.991440634645061607e+02 1.993762360146604919e+02 2.000508179012345522e+02 2.001604566936728418e+02 2.003421035879629528e+02 2.005883704668209759e+02 2.006034611304012287e+02 1.996775159143518579e+02 1.974310329861111200e+02 1.965552247299382600e+02 1.962199040316358207e+02 1.960863073881172909e+02 1.959978751929012333e+02 1.959256775655864260e+02 1.959823408564814997e+02 1.960937808641975266e+02 1.961456727430555702e+02 1.961281548996913671e+02 1.961026581790123373e+02 1.961730787037036805e+02 1.963354923804012344e+02 1.965752174961419598e+02 1.968711530671296259e+02 1.971584606481481501e+02 1.974467684220678905e+02 1.977197622492284097e+02 1.979698697916666674e+02 1.982332474922839367e+02 1.984748138503086352e+02 1.987371739969135831e+02 1.989947931134259136e+02 1.992421947337963104e+02 1.995300265239197586e+02 2.003075024112654319e+02 2.004255709876543108e+02 2.006002657214506257e+02 2.005877763310185173e+02 1.995887852044753288e+02 1.972560585455246951e+02 1.965233342978395115e+02 1.962201948302469248e+02 1.961035826581789934e+02 1.960528004436728224e+02 1.960097424768518692e+02 1.960889491705246712e+02 1.962279870756172784e+02 1.963030753279321061e+02 1.963112471064814883e+02 1.963392510609567978e+02 1.964283781828703752e+02 1.966285869984567967e+02 1.969058945794753015e+02 1.972199493634259397e+02 1.975459992283950612e+02 1.978820495756172875e+02 1.982259220679012230e+02 1.985396465084876638e+02 1.988097825038580027e+02 1.990673181905864055e+02 1.993358497299382748e+02 1.996081983024691340e+02 1.998725670331790241e+02 2.001986636766975209e+02 2.004791594328703752e+02 2.012766594328703604e+02 2.014045061728395183e+02 2.014349368248456926e+02 2.008399247685185003e+02 1.985451523919753072e+02 1.977543508873456801e+02 1.974385262345679166e+02 1.973206833526234618e+02 1.973292717978395103e+02 1.975302989969135865e+02 1.976933400848765245e+02 1.977327859760802369e+02 1.976725554591049274e+02 1.976117221257715926e+02 1.976392828896604783e+02 1.977726017554012117e+02 1.979610190007715858e+02 1.981883222415123669e+02 1.983954735725308467e+02 1.986211718750000159e+02 1.988292177854938245e+02 1.990223148148148198e+02 1.991983087384259079e+02 1.993690027006172727e+02 1.995272391010802551e+02 1.997031360918209941e+02 1.999169097222222433e+02 2.001294651813271628e+02 2.003754383680555691e+02 2.006255483217592541e+02 2.006664496527777715e+02 1.998475294174382668e+02 1.976554557291666754e+02 1.967886641589506098e+02 1.965233198302469191e+02 1.964521431327160315e+02 1.964739510995370324e+02 1.965420886381172636e+02 1.966823794367283824e+02 1.967985247878086454e+02 1.967866550925925822e+02 1.967030984760802426e+02 1.966663565779321061e+02 1.967249667245370404e+02 1.968947714120370449e+02 1.971363845486111188e+02 1.974296870177469145e+02 1.977243764467592655e+02 1.980041102430555497e+02 1.982655073302469191e+02 1.985117245370370540e+02 1.987424074074073985e+02 1.989574069251543165e+02 1.991907667824074224e+02 1.994128038194444343e+02 1.996756004050925810e+02 1.999409683641975164e+02 2.002286858603395103e+02 2.005307966820987531e+02 2.007264699074073917e+02 2.001961762152777737e+02 1.977955179398148005e+02 1.969934076003086432e+02 1.963534963348765245e+02 1.960773659336419712e+02 1.959114578510802573e+02 1.957922902199074144e+02 1.957771262538580288e+02 1.958618465470678984e+02 1.959175593171296157e+02 1.958955772569444491e+02 1.958446277006172807e+02 1.958892578125000057e+02 1.960307682291666538e+02 1.962404205246913591e+02 1.965034881365740773e+02 1.968038454861111290e+02 1.970988300540123248e+02 1.974015089699074110e+02 1.976803587962963036e+02 1.979054865933641736e+02 1.981509804205247178e+02 1.983920693479938393e+02 1.986335296103395081e+02 1.989126485339506303e+02 1.991836226851851848e+02 1.995050549768518522e+02 1.998146561535493788e+02 2.001697313850308717e+02 2.003998394097222331e+02 1.999745254629629585e+02 1.981819806134259352e+02 1.962942833719135933e+02 1.961240456211419598e+02 1.959492105516975471e+02 1.958671069637345852e+02 1.958296103395061607e+02 1.958818079668209862e+02 1.960324488811728543e+02 1.961473866705246962e+02 1.961124792631172795e+02 1.961553158757716062e+02 1.962873408564814781e+02 1.965243065200617139e+02 1.968162311921296350e+02 1.971215316358024836e+02 1.974436911651234539e+02 1.977731563464506053e+02 1.980574652777777658e+02 1.982879123263888914e+02 1.985051731288580186e+02 1.987179629629629574e+02 1.989317973572530889e+02 1.991542616705246758e+02 1.994129489776234436e+02 1.997149966242284052e+02 2.000316546103395012e+02 2.003226948302469168e+02 2.003058458719135899e+02 1.993138097993827103e+02 1.972508347800925890e+02 1.966054726080247121e+02 1.958777334104938177e+02 1.959307817322530809e+02 1.959952256944444571e+02 1.961612205825617252e+02 1.963804036458333258e+02 1.965164544753086489e+02 1.964987818287037271e+02 1.964329325810185196e+02 1.964314795524691419e+02 1.965315875771605079e+02 1.967022251157407595e+02 1.969189887152777771e+02 1.971781944444444434e+02 1.974596233603394921e+02 1.977302772955247008e+02 1.979785595100308626e+02 1.982102189429012356e+02 1.984101895254629824e+02 1.986023292824073962e+02 1.988009384645061743e+02 1.989940543016975312e+02 1.992265287422839322e+02 1.995045804398148164e+02 1.997993769290123396e+02 1.999619184027777976e+02 1.993674334490740705e+02 1.973932609953703547e+02 1.961260243055555748e+02 1.956933608217592564e+02 1.955161998456790116e+02 1.954745254629629585e+02 1.954021706211419769e+02 1.955116984953703536e+02 1.956578848379629676e+02 1.957226842206790138e+02 1.956810305748456926e+02 1.956212263695987588e+02 1.956694608410493856e+02 1.958370047260802664e+02 1.960804735725308774e+02 1.963582846257716028e+02 1.966444237075617139e+02 1.969445712770061903e+02 1.972267997685185321e+02 1.974870765817901201e+02 1.977031592399691533e+02 1.979408830054012469e+02 1.981676591435185060e+02 1.983920920138888846e+02 1.986352073688271673e+02 1.988888729745370370e+02 1.991654185956790002e+02 1.994930391589506371e+02 1.997941661844135979e+02 1.996312794174382645e+02 1.981026466049382861e+02 1.958728790509259454e+02 1.953262008101851848e+02 1.950834124228395012e+02 1.949641382137345431e+02 1.948462480709876559e+02 1.947956645447530946e+02 1.949728607253086352e+02 1.950566570216049342e+02 1.950666107253086352e+02 1.950180381944444434e+02 1.950137461419753038e+02 1.951039361496913500e+02 1.952945216049382680e+02 1.955714650848765359e+02 1.962174127121913614e+02 1.965415793788580174e+02 1.968460614390432113e+02 1.971196768904320891e+02 1.973965229552468941e+02 1.976640875771604726e+02 1.979033545524691533e+02 1.981592679398148107e+02 1.984425834297839515e+02 1.987534095293209759e+02 1.990768479938271582e+02 1.994458588927469123e+02 1.997031708140432045e+02 1.993807581018518533e+02 1.976650101273148152e+02 1.958438667052469100e+02 1.954317124807098764e+02 1.952499768518518692e+02 1.952340326003086375e+02 1.952119941165123578e+02 1.952734423225308831e+02 1.954378279320987701e+02 1.957372993827160315e+02 1.957038816550926015e+02 1.956427377507716017e+02 1.956639602623456824e+02 1.957949903549382498e+02 1.960001176697530809e+02 1.962684095293209907e+02 1.965711318479938257e+02 1.969038532021604908e+02 1.972016145833333383e+02 1.974573760609567898e+02 1.977031698495370335e+02 1.979513739390432079e+02 1.981836183449073872e+02 1.984478872492283870e+02 1.986909215856481410e+02 1.989708960262345840e+02 1.992687880979938200e+02 1.996056076388888698e+02 1.998934659529321038e+02 1.998887446952160474e+02 1.989565253665123521e+02 1.968305116705246860e+02 1.962482156635802255e+02 1.959958878279321084e+02 1.959126070601851950e+02 1.959616845100308637e+02 1.961180777391975312e+02 1.963218325617283995e+02 1.964151548032407391e+02 1.963603978587962899e+02 1.961303636188271469e+02 1.961562051504629665e+02 1.962483598572530923e+02 1.964755463927469350e+02 1.967411231674382748e+02 1.970175670331790059e+02 1.972992717978395092e+02 1.975753698881172795e+02 1.978354687499999898e+02 1.980539057677469259e+02 1.982365996334876570e+02 1.984096383101851870e+02 1.985932455632716085e+02 1.987917163387345738e+02 1.990337432484568012e+02 1.993122516396605022e+02 1.996080111882716039e+02 1.996558154899691431e+02 1.987682127700617229e+02 1.964486115933642054e+02 1.955879721257715858e+02 1.952291044560185185e+02 1.950794116512345795e+02 1.950418513695987883e+02 1.950323538773148186e+02 1.951389351851851757e+02 1.952594266010802357e+02 1.952706520061728384e+02 1.951853896604938257e+02 1.951596296296296202e+02 1.952227753665123373e+02 1.956379562114197483e+02 1.957890600887345727e+02 1.959963541666666629e+02 1.962576562499999966e+02 1.965345447530864078e+02 1.968019603587962933e+02 1.970453134645061652e+02 1.975335652970678950e+02 1.977609987461419507e+02 1.979846600115740500e+02 1.982259924768518431e+02 1.985009399112654478e+02 1.988060339506172909e+02 1.991426523919753038e+02 1.992456143904321095e+02 1.984274334490740728e+02 1.961148148148148209e+02 1.948173466435185048e+02 1.944814858217592644e+02 1.943266430362654376e+02 1.942262519290123350e+02 1.941306250000000091e+02 1.941514400077160474e+02 1.942941097608024847e+02 1.943897453703703491e+02 1.943981679205246849e+02 1.943786622299382714e+02 1.944332831790123350e+02 1.946076658950617286e+02 1.948324334490740739e+02 1.955611096643518465e+02 1.957040055941358219e+02 1.958818311149691169e+02 1.961149754050925935e+02 1.963393725887345624e+02 1.965540065586419871e+02 1.967905999228395046e+02 1.970476234567901201e+02 1.973076239390432249e+02 1.975874440586419780e+02 1.978688073881172897e+02 1.981844878472222433e+02 1.985269627700617150e+02 1.988685339506172909e+02 1.989799223572530877e+02 1.981410218942901338e+02 1.957444362461419871e+02 1.947919516782407356e+02 1.944392891589506007e+02 1.942899218750000045e+02 1.942219333526234664e+02 1.941753409529320891e+02 1.942467973572530866e+02 1.944028375771604829e+02 1.944867129629629687e+02 1.944703510802468998e+02 1.944426133294753072e+02 1.945035532407407288e+02 1.946780743634259352e+02 1.949288107638888903e+02 1.952244483024691419e+02 1.960787143132716039e+02 1.962067375578703547e+02 1.963615335648148061e+02 1.965770259452160360e+02 1.967738054591049490e+02 1.969672603202160417e+02 1.971731037808642100e+02 1.974131838348765484e+02 1.976550892168210112e+02 1.979071397569444457e+02 1.982087302276234482e+02 1.985339313271605022e+02 1.988107812499999909e+02 1.986486217206789888e+02 1.971470891203703673e+02 1.950973466435185060e+02 1.945923384452160576e+02 1.943844950810185424e+02 1.943284592013888812e+02 1.943604846643518442e+02 1.945191792052468998e+02 1.947188941936728384e+02 1.947868137538580129e+02 1.947036757330246814e+02 1.945812987075617286e+02 1.944927763310185185e+02 1.944826798804012356e+02 1.945526861496913398e+02 1.947148177083333280e+02 1.948890263310185276e+02 1.950995857445987838e+02 1.956105299961419917e+02 1.956880743634259261e+02 1.957773948688271446e+02 1.958916700424382498e+02 1.960413811728395217e+02 1.962033347800926038e+02 1.966418094135802619e+02 1.969100593171296509e+02 1.971958584104938268e+02 1.973795529513888880e+02 1.968661048418209703e+02 1.947633019868827091e+02 1.929401697530864226e+02 1.925895105131172897e+02 1.924311902006172943e+02 1.937606274112654319e+02 1.960372169174382861e+02 1.981070100308641884e+02 1.985579557291666788e+02 1.987695240162036896e+02 1.988355488040123475e+02 1.988586506558642100e+02 1.989559842785493800e+02 1.991502531828703582e+02 1.994324474344136036e+02 1.997707474922839594e+02 2.001473206018518738e+02 2.005006843171296396e+02 2.008332421874999909e+02 2.011143831983024484e+02 2.019084881365740500e+02 2.020073124035493777e+02 2.021405844907407356e+02 2.022555975115740807e+02 2.023756312692901247e+02 2.025202416087962831e+02 2.026908579282407459e+02 2.028978457754629687e+02 2.031480290316358150e+02 2.032968725887345727e+02 2.028398124035493879e+02 2.007812731481481308e+02 1.992431688850308831e+02 1.989380632716049320e+02 1.988349990354938086e+02 1.988018190586419678e+02 1.987167341820987474e+02 1.986880357831790036e+02 1.987676543209876741e+02 1.988253472222222342e+02 1.988299903549382748e+02 1.988242332175925924e+02 1.988959847608024631e+02 1.990826027199074133e+02 1.993651977237654478e+02 1.997062191358024847e+02 2.000294695216049377e+02 2.003181086033950464e+02 2.006047492283950646e+02 2.008562022569444423e+02 2.011137162422839424e+02 2.019388667052469089e+02 2.020910141782407550e+02 2.022817862654320891e+02 2.025071561535493743e+02 2.027346995563271719e+02 2.029828496334876604e+02 2.032693296682098776e+02 2.035835190007716164e+02 2.039036246141975255e+02 2.040789125192901281e+02 2.036452623456790150e+02 2.016180155285493640e+02 2.002131100501543131e+02 1.998817095871913807e+02 1.997585599922839492e+02 1.997453718171296373e+02 1.997440258487654319e+02 1.998156119791666754e+02 1.999626750578703707e+02 2.000347511574074133e+02 2.000140224729938154e+02 1.999957421874999852e+02 2.000530965470678950e+02 2.001906240354938404e+02 2.004208805941358094e+02 2.007067211612654205e+02 2.010211588541666572e+02 2.013449117476851882e+02 2.016523128858024734e+02 2.019239703896604965e+02 2.021771190200617241e+02 2.028990933641975403e+02 2.030094984567901122e+02 2.031217650462963036e+02 2.032649074074074065e+02 2.034442775848765450e+02 2.039375689621913637e+02 2.041543889853395228e+02 2.039517144097222285e+02 2.024795360725308626e+02 2.006117930169752981e+02 2.002418508873456631e+02 2.000940625000000068e+02 2.000802329282407186e+02 2.001475713734567705e+02 2.003316825810185264e+02 2.005507532793209862e+02 2.006131616512345488e+02 2.005165012538580243e+02 2.003943783757715948e+02 2.003775935570987770e+02 2.004797554976851757e+02 2.006787393904320993e+02 2.009541406249999795e+02 2.012431240354938211e+02 2.015356462191357991e+02 2.018605791859567660e+02 2.022375313464505950e+02 2.025393986304012230e+02
5.113078173225308376e+01 5.113719184027777942e+01 5.120390239197531201e+01 5.148398967978395291e+01 5.173884548611111001e+01 5.185446711033950606e+01 5.190052903163580567e+01 5.199490403163580510e+01 5.220040653935185304e+01 5.247324218749999858e+01 5.279322579089505751e+01 5.306969473379629676e+01 5.330917148919752435e+01 5.354575906635802340e+01 5.379280381944444400e+01 5.523342640817900673e+01 5.524262201003086403e+01 5.509413773148148152e+01 5.485259452160494220e+01 5.457263165509259295e+01 5.423308834876543472e+01 5.387599537037036868e+01 5.364850501543209305e+01 5.341320457175925895e+01 5.441687355324074105e+01 5.499942853009259380e+01 5.458837866512345727e+01 5.322822820216049422e+01 5.226636332947530406e+01 5.183070408950617036e+01 5.172995611496914137e+01 5.069105854552469026e+01 5.069763792438271821e+01 5.077456934799382537e+01 5.093070312500000085e+01 5.100914448302469140e+01 5.097067274305555173e+01 5.092775848765431590e+01 5.097405044367283722e+01 5.113996479552469054e+01 5.135129243827160650e+01 5.161763406635802198e+01 5.188667775848765018e+01 5.214196035879629676e+01 5.241142071759259125e+01 5.267587577160493595e+01 5.292714072145061976e+01 5.319085407021605505e+01 5.346339602623456244e+01 5.378547164351851251e+01 5.409516059027777857e+01 5.443990740740740364e+01 5.475863281250000369e+01 5.509462046682098446e+01 5.543387586805555856e+01 5.569325665509258982e+01 5.543001350308642117e+01 5.413835599922839492e+01 5.243623601466049422e+01 5.190181857638889085e+01 5.165166859567901270e+01 5.162167872299382054e+01 5.164876832561728293e+01 5.171190489969136195e+01 5.187616946373456983e+01 5.195905960648148181e+01 5.189486641589505922e+01 5.182099729938271793e+01 5.183352141203703667e+01 5.190936149691358281e+01 5.202900752314814525e+01 5.219323736496913568e+01 5.239563464506172608e+01 5.264606095679012299e+01 5.293664834104938421e+01 5.327342544367283494e+01 5.361989004629629108e+01 5.396676311728394637e+01 5.422853973765431590e+01 5.444846450617284006e+01 5.467437692901233959e+01 5.494588107638888630e+01 5.523486545138888459e+01 5.548559799382715596e+01 5.553629726080247053e+01 5.481801793981481552e+01 5.293240933641975232e+01 5.196826630015432613e+01 5.163111400462963019e+01 5.153910831404320447e+01 5.158628231095678984e+01 5.169662856867284262e+01 5.189661892361110773e+01 5.224694492669753032e+01 5.221355661651234215e+01 5.208732880015431732e+01 5.201472222222222541e+01 5.205057050540123242e+01 5.218319492669752435e+01 5.238105565200617519e+01 5.263242042824074218e+01 5.291109133873456472e+01 5.318324652777777573e+01 5.345135995370370097e+01 5.370743344907407391e+01 5.392564380787037237e+01 5.415037519290122958e+01 5.439319203317901241e+01 5.462757426697530860e+01 5.488869839891975744e+01 5.516207368827160451e+01 5.547302469135802738e+01 5.579835503472222058e+01 5.579708622685185304e+01 5.489956259645061465e+01 5.293344087577160195e+01 5.214206983024691056e+01 5.180136766975308404e+01 5.165866415895061436e+01 5.157513551311728150e+01 5.150925202546296333e+01 5.154689139660494135e+01 5.162708285108024597e+01 5.163195312500000256e+01 5.137375096450617207e+01 5.141420910493827279e+01 5.150228202160494106e+01 5.171319155092592013e+01 5.198137538580246542e+01 5.230043306327160479e+01 5.264853443287037038e+01 5.296413966049382793e+01 5.327278501157407220e+01 5.357169415509259380e+01 5.383984616126542733e+01 5.408502845293209305e+01 5.433220582561728662e+01 5.458093219521605022e+01 5.482862220293210243e+01 5.511272424768518619e+01 5.541415702160493595e+01 5.574193624614197518e+01 5.588392939814814753e+01 5.515512490354938535e+01 5.318424093364197347e+01 5.209818721064814895e+01 5.171424913194444173e+01 5.155961226851851364e+01 5.151094618055555685e+01 5.148419174382716079e+01 5.155876012731481239e+01 5.167103587962962763e+01 5.172805217978395120e+01 5.171965229552468912e+01 5.171102141203703439e+01 5.180033179012345101e+01 5.195187114197531031e+01 5.217919511959876644e+01 5.248371720679012498e+01 5.282110773533950976e+01 5.315401861496913227e+01 5.347631896219135683e+01 5.378496817129629903e+01 5.407298369984567898e+01 5.437188512731481893e+01 5.463958236882715624e+01 5.490623167438271679e+01 5.519339843750000085e+01 5.550031394675926322e+01 5.587403067129629619e+01 5.622612557870370154e+01 5.655000530478395149e+01 5.637207465277777629e+01 5.505692515432098588e+01 5.310294463734567927e+01 5.251751929012345244e+01 5.228726466049382537e+01 5.223957706404321044e+01 5.226249855324073934e+01 5.239458043981481694e+01 5.254106577932098787e+01 5.260415027006173005e+01 5.253534818672839179e+01 5.243967640817901099e+01 5.241985725308641975e+01 5.249430652006172693e+01 5.287836033950617320e+01 5.301681905864197120e+01 5.319162905092592553e+01 5.344454378858024768e+01 5.372166039737653875e+01 5.396528356481481126e+01 5.417478298611111143e+01 5.438231819058642458e+01 5.456245322145061749e+01 5.477115499614197347e+01 5.499015576774691993e+01 5.525608603395061635e+01 5.552869984567901440e+01 5.582530864197531173e+01 5.578273003472222058e+01 5.472202112268518448e+01 5.255595486111111114e+01 5.169427469135802511e+01 5.137877555941358310e+01 5.125015866126543074e+01 5.122394579475308518e+01 5.128069396219136422e+01 5.142981336805555515e+01 5.153013551311728691e+01 5.148736979166666572e+01 5.136746913580247309e+01 5.131607011959876274e+01 5.138092785493827108e+01 5.153698736496913568e+01 5.175963107638889227e+01 5.202943142361110773e+01 5.280926070601852018e+01 5.292870081018518391e+01 5.306403067129629392e+01 5.324004726080246996e+01 5.339412856867284063e+01 5.357276861496913511e+01 5.376244261188271167e+01 5.395165027006173375e+01 5.418528501157407362e+01 5.444778886959876019e+01 5.472846788194444656e+01 5.401574604552469339e+01 5.159707175925925782e+01 5.049046682098765615e+01 5.003564670138888459e+01 4.985418885030863834e+01 4.972570505401234442e+01 4.959825086805555827e+01 4.957896604938271423e+01 4.965286892361110915e+01 4.967525462962963445e+01 4.962817418981481410e+01 4.959425829475308944e+01 4.966544126157407391e+01 4.982534047067900929e+01 5.006349440586419774e+01 5.033604552469135740e+01 5.065990017361110631e+01 5.094855275848765785e+01 5.126349537037036441e+01 5.203280815972222229e+01 5.213721016589506263e+01 5.226800733024690970e+01 5.245471402391975602e+01 5.263709924768518533e+01 5.285384789737654643e+01 5.310122685185184821e+01 5.337105324074074275e+01 5.369745900848765530e+01 5.397083622685185134e+01 5.377140962577160366e+01 5.213639805169753316e+01 4.991807050540123214e+01 4.935665219907406964e+01 4.912782793209876786e+01 4.904016589506172608e+01 4.898404513888889511e+01 4.897132040895061778e+01 4.906793065200617576e+01 4.917804060570987446e+01 4.923166377314814923e+01 4.922622540509259181e+01 4.927689477237654359e+01 4.942108892746913540e+01 4.966005690586419519e+01 5.000611207561728833e+01 5.036929880401234527e+01 5.074526138117283836e+01 5.109073977623456386e+01 5.143264708719136280e+01 5.169903308256172636e+01 5.245825617283950493e+01 5.258684220679012356e+01 5.275085214120370125e+01 5.296523485725308689e+01 5.321552276234567813e+01 5.350975308641974948e+01 5.384374180169752577e+01 5.421795138888888488e+01 5.453754002700617320e+01 5.438898630401234868e+01 5.299752989969135797e+01 5.094047501929012611e+01 5.033669174382715994e+01 5.009811631944444343e+01 5.003974247685184906e+01 5.005660638503086091e+01 5.015986689814814525e+01 5.033782503858024882e+01 5.044238570601851990e+01 5.042208285108024768e+01 5.036930748456789786e+01 5.036897810570987843e+01 5.046926697530864203e+01 5.067202594521604908e+01 5.093879484953703951e+01 5.125159770447530860e+01 5.152864293981480870e+01 5.179864486882716079e+01 5.205708574459876559e+01 5.231673900462963189e+01 5.251621865354938024e+01 5.314264130015432386e+01 5.324453221450617946e+01 5.336807195216049138e+01 5.357282455632716278e+01 5.381096161265431732e+01 5.409867910879629704e+01 5.421615113811728293e+01 5.358004533179012441e+01 5.150082224151234556e+01 5.019802517361111427e+01 4.962829812885802738e+01 4.960852430555555515e+01 4.968535252700617377e+01 4.986569155092593064e+01 5.003727430555555600e+01 5.006670572916667084e+01 4.998508969907407362e+01 4.993707706404320845e+01 4.999792968749999744e+01 5.016903163580246883e+01 5.040994454089506149e+01 5.071971257716049308e+01 5.103760513117283892e+01 5.136475019290123356e+01 5.165302565586419803e+01 5.192328221450617320e+01 5.217276427469136024e+01 5.241616994598765444e+01 5.267429783950617406e+01 5.293455536265432215e+01 5.373703269675926464e+01 5.388402536651234698e+01 5.409013454861111114e+01 5.437040991512346011e+01 5.441240113811728207e+01 5.352369309413580112e+01 5.102563368055555060e+01 4.989399305555555486e+01 4.945956741898147868e+01 4.927759066358024853e+01 4.917935040509259181e+01 4.911611352237654415e+01 4.918159722222222285e+01 4.931220244984567813e+01 4.937605420524691624e+01 4.935402391975308944e+01 4.934079282407407874e+01 4.940925636574073820e+01 4.957291232638889511e+01 4.981650607638889028e+01 5.014161168981481609e+01 5.045646990740740989e+01 5.078452787422839521e+01 5.109601128472221632e+01 5.137823206018518363e+01 5.166663724922839407e+01 5.193881028163580282e+01 5.221701581790123470e+01 5.251865258487654131e+01 5.280484712577160167e+01 5.312495949074074275e+01 5.397984230324074417e+01 5.415331838348765814e+01 5.437287326388889142e+01 5.437961082175926464e+01 5.338059268904321186e+01 5.073057050540123214e+01 4.980214361496913256e+01 4.943512345679012299e+01 4.929467158564815321e+01 4.923972463348765416e+01 4.920440297067901270e+01 4.927531828703703809e+01 4.941891637731481524e+01 4.950895929783950322e+01 4.951592062114197290e+01 4.954912615740740733e+01 4.964923659336420059e+01 4.985065248842592922e+01 5.015104938271604595e+01 5.050402584876542988e+01 5.086046489197531173e+01 5.123687403549382680e+01 5.160140576774691112e+01 5.196475260416666941e+01 5.227810619212963417e+01 5.257489872685184906e+01 5.287242428626543500e+01 5.317690152391975289e+01 5.348760706018518363e+01 5.385198640046296248e+01 5.417234423225308149e+01 5.514242139274691112e+01 5.531554832175925895e+01 5.538136911651234584e+01 5.477007282021604340e+01 5.224450472608024398e+01 5.121869261188271594e+01 5.080011574074074332e+01 5.065233940972222371e+01 5.065198350694444684e+01 5.085928578317901128e+01 5.103322916666666487e+01 5.108835021219135797e+01 5.102836660879629704e+01 5.096912905092592894e+01 5.100154706790122816e+01 5.114250916280864345e+01 5.135009018132716108e+01 5.160900511188271622e+01 5.187905623070987815e+01 5.213668113425925554e+01 5.238088252314815207e+01 5.261171296296296163e+01 5.283914303626543330e+01 5.305199170524691255e+01 5.325281008873457012e+01 5.345188850308641548e+01 5.368443238811728691e+01 5.393420621141975602e+01 5.423460503472222172e+01 5.452153983410494220e+01 5.475059510030864374e+01 5.386367621527777771e+01 5.143266251929012611e+01 5.041290412808641719e+01 5.003132619598765274e+01 4.990869743441357542e+01 4.991282214506172465e+01 4.998229793595678672e+01 5.013784673996913455e+01 5.027388840663579828e+01 5.029174864969135683e+01 5.021544126157407106e+01 5.018009982638888999e+01 5.024206404320987929e+01 5.040670235339506178e+01 5.065561005015432272e+01 5.099032118055555429e+01 5.132569974922839862e+01 5.164584731867284262e+01 5.194225935570987929e+01 5.221559413580246911e+01 5.246819830246913341e+01 5.271871141975309172e+01 5.296776620370370381e+01 5.322240499614197518e+01 5.352729166666666316e+01 5.381877266589506803e+01 5.415034481095679553e+01 5.450653838734567813e+01 5.473704234182098816e+01 5.424207320601851734e+01 5.124624903549382537e+01 5.038511284722222427e+01 4.969942322530864232e+01 4.944985435956790099e+01 4.930888406635802568e+01 4.921558063271604766e+01 4.922058545524691198e+01 4.931616319444444940e+01 4.938279079861111143e+01 4.937823254243826909e+01 4.933867573302469367e+01 4.937541907793210072e+01 4.951249083719135768e+01 4.973229745370370125e+01 5.002008584104938649e+01 5.035037085262345613e+01 5.068426697530863834e+01 5.101514274691357542e+01 5.131172791280864232e+01 5.154553867669753231e+01 5.181822482638889227e+01 5.207239101080246968e+01 5.235008487654321385e+01 5.266265721450617576e+01 5.295004822530864175e+01 5.330666714891975744e+01 5.366714168595679268e+01 5.407594618055555458e+01 5.434631172839506519e+01 5.396425733024691596e+01 5.203718267746913995e+01 4.946351224922839407e+01 4.932299479166666600e+01 4.919936342592592382e+01 4.917507571373457154e+01 4.917727478780864203e+01 4.924929542824073536e+01 4.942207947530864232e+01 4.955789641203703155e+01 4.953645688657407220e+01 4.958784866898148636e+01 4.972334056712962536e+01 4.997819010416666430e+01 5.030257716049382566e+01 5.066706114969135655e+01 5.101924334490740875e+01 5.138697434413580112e+01 5.169489824459876814e+01 5.196930555555555742e+01 5.221355275848765132e+01 5.245419126157407419e+01 5.269032021604937910e+01 5.294885271990740705e+01 5.324236448688271395e+01 5.359693721064814298e+01 5.396010657793210186e+01 5.431398582175926038e+01 5.432761043595678530e+01 5.337151523919752805e+01 5.110648919753086261e+01 5.023862461419753345e+01 4.918471161265431846e+01 4.928323640046296106e+01 4.940471064814814639e+01 4.961036072530863805e+01 4.987232494212963019e+01 5.005042486496913767e+01 5.006283275462963189e+01 5.000696469907407504e+01 5.001149691358024540e+01 5.011531250000000171e+01 5.031129822530864004e+01 5.056465518904321499e+01 5.087466676311728264e+01 5.118639419367283949e+01 5.149272569444444514e+01 5.178109085648148380e+01 5.203931905864197915e+01 5.226661892361111228e+01 5.248982880015432073e+01 5.270988233024691993e+01 5.293318865740740620e+01 5.320957851080247281e+01 5.351796537422839606e+01 5.386561294367283637e+01 5.407704427083333343e+01 5.354377604166666060e+01 5.145696903935185418e+01 4.993399160879629761e+01 4.938115451388888744e+01 4.916483892746913398e+01 4.910678481867284262e+01 4.895301793981481353e+01 4.908803481867283836e+01 4.926927806712962621e+01 4.936811776620370296e+01 4.934895881558642117e+01 4.930502266589505922e+01 4.935632667824074105e+01 4.951952980324073650e+01 4.977563802083333400e+01 5.008906394675926066e+01 5.042693672839506291e+01 5.075096161265432215e+01 5.106828993055555799e+01 5.135656635802469339e+01 5.159933015046296845e+01 5.186100501543209873e+01 5.211179012345678530e+01 5.236169029706790212e+01 5.262801070601852160e+01 5.291993248456790155e+01 5.324330054012345670e+01 5.360358458719135655e+01 5.394502893518518505e+01 5.381283516589505922e+01 5.228746672453704036e+01 4.977049623842592752e+01 4.907093171296295964e+01 4.876205391589505922e+01 4.862755979938271622e+01 4.853356288580246769e+01 4.849622347608024597e+01 4.860629002700617463e+01 4.871418113425926322e+01 4.875706356095679439e+01 4.872845920138888687e+01 4.873148051697530292e+01 4.883253279320987161e+01 4.903403163580247082e+01 4.932102575231481012e+01 5.002679735725308774e+01 5.039157841435184793e+01 5.073769917052469225e+01 5.104009982638888943e+01 5.133480613425926009e+01 5.160493634259259466e+01 5.187816454475309058e+01 5.216487702546295679e+01 5.247017843364197631e+01 5.281560281635802312e+01 5.319606529706789644e+01 5.361233989197530292e+01 5.391491994598765558e+01 5.362142361111110489e+01 5.181359760802469339e+01 4.980363763503086005e+01 4.923082561728394779e+01 4.901707802854937768e+01 4.896897617669753089e+01 4.894264081790123555e+01 4.899829282407407760e+01 4.915561776620370438e+01 4.950266059027777743e+01 4.949495081018518761e+01 4.943962287808641776e+01 4.945921344521605079e+01 4.959576388888888943e+01 4.982156057098764990e+01 5.010991464120370154e+01 5.044173804012345386e+01 5.081582127700617946e+01 5.115457031249999886e+01 5.143595920138888999e+01 5.169850549768518988e+01 5.198390142746913511e+01 5.224357349537037010e+01 5.253654996141975886e+01 5.280368248456790070e+01 5.312279369212962621e+01 5.346537856867283978e+01 5.384638888888888886e+01 5.418889081790123186e+01 5.422576533564814838e+01 5.329448688271604340e+01 5.096617380401234243e+01 5.020294029706790440e+01 4.988686439043210186e+01 4.979050588348765416e+01 4.982460455246913256e+01 4.997623649691357883e+01 5.020744212962962649e+01 5.032818817515432386e+01 5.028353009259259210e+01 4.996297357253086346e+01 5.000829909336419377e+01 5.012874180169752947e+01 5.037801408179012697e+01 5.068715952932098645e+01 5.099988570601851734e+01 5.131130642361111427e+01 5.162635898919752719e+01 5.193360773533950692e+01 5.218009886188271196e+01 5.240507957175925924e+01 5.260924864969135939e+01 5.282505497685185247e+01 5.303187017746913767e+01 5.330236738040123612e+01 5.360570505401234698e+01 5.394393759645061692e+01 5.402926215277778255e+01 5.318022521219135257e+01 5.068757812500000171e+01 4.958457127700617662e+01 4.914632860725308916e+01 4.897773726851852416e+01 4.894646026234568126e+01 4.895306375385802511e+01 4.907119791666666941e+01 4.920897907021604567e+01 4.923656876929012327e+01 4.917230324074073877e+01 4.913187741126543528e+01 4.919716290509258982e+01 4.962852092978395291e+01 4.981319589120370495e+01 5.003842978395061891e+01 5.033927324459877184e+01 5.064823109567901582e+01 5.095210551697530832e+01 5.122424286265432158e+01 5.174088300540123697e+01 5.198740065586419945e+01 5.223381028163580453e+01 5.250856240354938365e+01 5.281362606095679268e+01 5.316402970679012441e+01 5.354202835648148096e+01 5.367849633487654160e+01 5.290832995756172608e+01 5.041480999228394921e+01 4.889961757330247138e+01 4.845245949074074332e+01 4.828314621913580851e+01 4.818489293981480870e+01 4.810282166280863692e+01 4.813296874999999631e+01 4.827719714506172721e+01 4.838403549382715596e+01 4.841046006944444713e+01 4.840747636959876132e+01 4.846275414737654330e+01 4.862297935956790695e+01 4.886186342592592524e+01 4.966604263117284290e+01 4.984701437114197375e+01 5.004744020061728804e+01 5.029944878472222314e+01 5.056114052854938024e+01 5.079944299768518334e+01 5.105082802854938251e+01 5.132913917824074446e+01 5.161433738425925810e+01 5.190270109953704036e+01 5.221084924768518221e+01 5.255518180941357542e+01 5.292473813657407078e+01 5.330611738040123981e+01 5.344686728395061692e+01 5.266359567901234584e+01 5.003881076388888971e+01 4.891164641203703667e+01 4.846327787422839606e+01 4.830709442515431817e+01 4.825967158564814952e+01 4.821265383873456756e+01 4.829953993055556083e+01 4.846042775848765416e+01 4.856048900462963047e+01 4.854338541666666629e+01 4.853849344135802113e+01 4.860461805555555515e+01 4.878857831790123356e+01 4.905806471836419291e+01 4.936723958333333684e+01 5.032639467592592553e+01 5.049043402777777345e+01 5.067306037808641861e+01 5.091815779320987900e+01 5.113653115354937739e+01 5.134180652006172352e+01 5.156539882330246627e+01 5.182102430555556083e+01 5.209090229552469253e+01 5.237201340663580851e+01 5.271218315972222257e+01 5.308246865354938393e+01 5.341097125771604937e+01 5.328013792438271423e+01 5.177950569058641861e+01 4.947325086805555827e+01 4.882188271604938024e+01 4.857138599537037038e+01 4.851623553240740705e+01 4.856397280092592439e+01 4.873065007716049024e+01 4.893775704089505751e+01 4.904651282793209788e+01 4.897739776234568154e+01 4.886040123456789530e+01 4.880623263888888630e+01 4.882808063271604482e+01 4.893762731481481154e+01 4.911885127314814525e+01 4.933221209490740478e+01 4.956824266975308291e+01 5.024868393132715738e+01 5.034791232638889369e+01 5.044224874614197773e+01 5.057165653935184935e+01 5.073002121913580709e+01 5.092280237268518306e+01 5.137928626543209987e+01 5.167994261188271565e+01 5.200511574074074161e+01 5.220938560956790297e+01 5.174267409336419377e+01 4.945740306712963275e+01 4.758602092978394893e+01 4.709863184799382196e+01 4.689470486111110858e+01 4.806299672067901696e+01 5.003294849537036981e+01 5.179549382716049166e+01 5.214015142746913511e+01 5.228265673225308774e+01 5.229496045524690828e+01 5.228467881944444429e+01 5.235037229938271963e+01 5.253162663966049450e+01 5.280952883873456472e+01 5.315884259259259181e+01 5.355758535879629534e+01 5.394119454089506149e+01 5.428301215277777203e+01 5.458815007716049195e+01 5.542201919367283836e+01 5.557363136574073792e+01 5.573214602623456670e+01 5.588570794753086091e+01 5.603397328317901582e+01 5.620467013888888630e+01 5.640989004629629733e+01 5.665679349922839947e+01 5.695734182098765785e+01 5.715131606867284120e+01 5.670518229166666657e+01 5.449034432870370637e+01 5.266239245756172949e+01 5.221014949845678643e+01 5.206391396604938393e+01 5.200172116126543642e+01 5.194014178240740875e+01 5.191343701774691510e+01 5.200422984182098674e+01 5.206619020061728520e+01 5.207662326388889085e+01 5.207644338348764990e+01 5.213907937885802113e+01 5.230637876157407362e+01 5.260851224922839720e+01 5.296706741898148607e+01 5.331398292824074048e+01 5.363697289737654472e+01 5.395651620370369983e+01 5.423752363040123470e+01 5.452276668595678899e+01 5.544236689814814412e+01 5.562147424768518533e+01 5.584502363040122930e+01 5.609761429398148636e+01 5.637340470679012583e+01 5.666599199459876246e+01 5.701308786651234328e+01 5.738930217978395376e+01 5.777776572145061351e+01 5.800881655092592126e+01 5.757228105709877042e+01 5.540139515817900673e+01 5.370497685185185333e+01 5.321494743441358111e+01 5.304585021219135399e+01 5.301445023148147584e+01 5.300610001929012327e+01 5.309957947530863720e+01 5.324426167052469339e+01 5.334671006944444827e+01 5.333922646604938222e+01 5.331190586419752719e+01 5.337219569830246968e+01 5.351766059027777800e+01 5.377603105709876274e+01 5.408678771219135939e+01 5.443792438271605505e+01 5.479001157407407874e+01 5.512713445216049024e+01 5.544008439429012469e+01 5.573235243055555799e+01 5.661092881944444599e+01 5.675947916666667226e+01 5.689694058641975261e+01 5.706055314429011815e+01 5.729174334490740250e+01 5.790308738425925839e+01 5.818688223379629676e+01 5.799879581404320561e+01 5.637347945601851507e+01 5.423810522762345698e+01 5.369771460262345641e+01 5.348549382716049649e+01 5.346465036651234470e+01 5.353517698688271054e+01 5.373164978780864232e+01 5.396811776620370438e+01 5.406227527006173261e+01 5.399645013503086233e+01 5.387735628858024484e+01 5.385971064814815179e+01 5.396094135802469083e+01 5.416211467978395433e+01 5.446577594521604482e+01 5.478839940200617065e+01 5.513098524305555515e+01 5.548638551311728406e+01 5.589887297453703496e+01 5.623218798225308745e+01
3.701344521604938098e+00 3.693449556327160543e+00 3.558439429012346000e+00 2.995478877314814881e+00 2.813890335648148167e+00 2.827407407407407369e+00 2.879119405864197567e+00 2.933231095679011968e+00 2.998499710648148131e+00 3.043389274691358004e+00 3.090354938271604901e+00 3.114546199845678931e+00 3.137119020061728047e+00 3.153061342592592631e+00 3.171309317129629601e+00 3.271229745370370257e+00 3.257468171296296511e+00 3.203199749228395010e+00 3.154170042438271704e+00 3.107381365740740975e+00 3.059396701388888751e+00 3.033708043981481417e+00 3.012412229938271402e+00 2.976911651234567913e+00 3.060014949845679233e+00 3.145632233796296529e+00 3.053752411265432176e+00 2.987965374228394921e+00 2.933439429012346000e+00 2.917195698302469165e+00 2.935966917438271651e+00 3.026460262345678665e+00 3.018620273919752961e+00 2.963750000000000107e+00 2.934307484567901358e+00 2.927351948302469253e+00 2.909271797839506402e+00 2.899694733796296386e+00 2.931231192129629903e+00 2.979186921296296031e+00 3.013421103395061529e+00 3.031043113425925917e+00 3.025080054012345698e+00 3.036450135030864139e+00 3.037298900462963136e+00 3.047750289351851993e+00 3.056046489197530747e+00 3.082534722222221912e+00 3.097295042438271473e+00 3.114949845679012341e+00 3.116039255401234609e+00 3.126911651234567824e+00 3.141126060956790145e+00 3.144018614969136038e+00 3.146964699074074279e+00 3.173588445216048992e+00 3.083243634259259291e+00 2.995988136574074368e+00 2.885199170524691326e+00 2.828940007716049365e+00 2.820633680555555856e+00 2.860965470679011968e+00 3.081551408179012519e+00 3.075597993827160703e+00 3.052511574074074030e+00 3.037907021604938418e+00 2.995315875771605185e+00 2.960761477623456983e+00 2.963815586419753068e+00 2.993954957561728136e+00 3.029112654320987641e+00 3.059801793981481666e+00 3.080921585648147776e+00 3.083686342592592666e+00 3.069731867283950866e+00 3.057364486882716115e+00 3.044808063271605025e+00 3.064206211419752801e+00 3.107095871913580165e+00 3.122509162808642103e+00 3.151458333333333250e+00 3.162207754629629441e+00 3.160588831018518619e+00 3.165407986111111072e+00 3.152236689814814863e+00 3.022977912808642031e+00 2.938362750771605025e+00 2.857158564814814561e+00 2.829952256944444411e+00 2.852098765432098837e+00 2.891403356481481168e+00 2.941757330246913327e+00 3.010704571759259096e+00 2.995193383487654071e+00 2.949439139660493758e+00 2.890000964506172831e+00 2.862981770833333162e+00 2.886025752314814952e+00 2.933915412808642209e+00 2.997720871913580165e+00 3.051407214506172583e+00 3.073443769290123306e+00 3.076889949845678984e+00 3.057793692129629815e+00 3.060125385802469289e+00 3.056188753858024576e+00 3.074388020833333623e+00 3.089486400462962745e+00 3.110386284722222339e+00 3.120480806327160295e+00 3.125032310956790127e+00 3.144939236111111480e+00 3.154829282407407121e+00 3.128982445987654071e+00 2.986407696759259434e+00 2.895207368827160455e+00 2.858852237654320838e+00 2.835997299382715831e+00 2.836837866512345929e+00 2.844123746141975495e+00 2.858492476851851816e+00 2.884773341049382545e+00 2.924429012345679091e+00 2.933192033179012448e+00 2.935081018518518547e+00 2.911969039351851585e+00 2.914691358024691592e+00 2.951019483024691414e+00 2.982954282407407121e+00 2.988892746913580201e+00 2.988049286265432425e+00 2.989844714506173062e+00 3.007416087962963225e+00 3.022972125771604901e+00 3.063483314043209838e+00 3.076752025462963225e+00 3.082700617283950617e+00 3.100658275462962798e+00 3.122191840277777519e+00 3.117605131172839439e+00 3.138782793209876409e+00 3.134534625771604688e+00 3.138567708333332984e+00 3.011032021604937992e+00 2.915207368827160472e+00 2.863530574845678967e+00 2.818831018518518583e+00 2.827678915895061706e+00 2.847922935956789914e+00 2.858973765432098801e+00 2.898463541666666643e+00 2.951197916666666643e+00 2.968193962191358004e+00 2.965288869598765586e+00 2.961307870370370576e+00 2.955198688271605256e+00 2.963355999228395099e+00 2.981629050925926006e+00 3.002858314043209909e+00 2.997425733024691397e+00 3.001814236111111089e+00 3.010885416666666536e+00 3.023717206790123679e+00 3.046737557870370150e+00 3.087421392746913629e+00 3.094633969907407689e+00 3.107863618827160224e+00 3.125130690586419568e+00 3.120079089506172743e+00 3.141241319444444624e+00 3.142052469135802273e+00 3.155123939043209536e+00 3.095153356481481488e+00 3.021796392746913806e+00 2.904863040123456752e+00 2.864596836419752712e+00 2.845327449845679091e+00 2.862260320216049259e+00 2.896666666666666945e+00 2.957413194444444393e+00 2.994218267746913575e+00 3.012043306327160330e+00 2.980320216049382687e+00 2.954933449074073959e+00 2.952176890432098855e+00 2.983963155864197248e+00 2.970165895061728456e+00 2.979785397376543354e+00 2.999044174382715866e+00 3.020952932098765586e+00 3.055140335648148131e+00 3.068918306327160561e+00 3.084138695987654000e+00 3.099783950617283956e+00 3.107362075617284169e+00 3.117775366512345769e+00 3.122190875771605256e+00 3.127971161265432176e+00 3.130949556327160543e+00 3.139388985339506277e+00 3.107973572530864370e+00 2.976938657407407263e+00 2.869947434413580023e+00 2.835878665123456432e+00 2.814708719135802450e+00 2.822454668209876782e+00 2.831830632716049401e+00 2.864709683641975424e+00 2.920563271604938560e+00 2.950366512345679038e+00 2.930566647376543266e+00 2.887765239197531031e+00 2.882230420524691361e+00 2.916179108796296049e+00 2.963822820216049259e+00 3.015979456018518690e+00 3.024710165895061920e+00 2.964997106481481737e+00 2.967321566358024576e+00 2.973947723765431927e+00 3.012049575617283814e+00 3.037743537808641925e+00 3.046828703703703400e+00 3.062804301697530818e+00 3.075762442129629903e+00 3.085093557098765427e+00 3.082419463734567877e+00 3.069500385802469200e+00 2.941096643518518405e+00 2.845069444444444429e+00 2.781708622685185262e+00 2.746057581018518601e+00 2.730062692901234378e+00 2.726915991512345538e+00 2.717336033950617402e+00 2.736838348765432194e+00 2.771850887345679304e+00 2.790353973765431927e+00 2.782042824074073994e+00 2.779050443672839599e+00 2.816244212962963012e+00 2.876758294753086087e+00 2.938480902777777626e+00 2.943599537037036917e+00 2.946221064814814827e+00 2.929210551697530640e+00 2.937521701388889017e+00 2.938983892746913629e+00 2.939870273919753085e+00 2.957322530864197496e+00 2.980395447530864050e+00 3.012534239969135719e+00 3.036674382716049170e+00 3.038123553240740904e+00 3.035525655864197425e+00 3.024473861882715831e+00 3.030221836419753068e+00 2.959058641975308657e+00 2.859357638888888609e+00 2.766050347222221983e+00 2.746933352623456503e+00 2.724562596450617047e+00 2.731844135802469431e+00 2.747695312500000320e+00 2.752837094907407689e+00 2.805080536265431856e+00 2.845637538580247039e+00 2.865978009259259274e+00 2.861325231481481435e+00 2.879421296296296173e+00 2.908835841049382864e+00 2.937278163580246737e+00 2.932537133487654213e+00 2.895643325617283992e+00 2.875847318672839492e+00 2.878838734567901181e+00 2.923567708333333126e+00 2.941326195987654213e+00 2.964044174382716168e+00 2.959788773148148255e+00 2.976257233796296031e+00 3.011316550925926094e+00 3.031926118827160455e+00 3.036528260030864512e+00 3.022449363425926183e+00 3.018253761574074101e+00 3.039418402777777750e+00 2.976054205246913664e+00 2.900551215277777928e+00 2.780242091049383024e+00 2.751060474537037059e+00 2.735144675925925917e+00 2.749095775462962798e+00 2.778277391975308319e+00 2.823105709876543301e+00 2.881336805555555713e+00 2.911129436728395081e+00 2.898810281635802344e+00 2.868259066358024967e+00 2.883081114969136216e+00 2.916404803240740584e+00 2.955503472222221983e+00 2.978011188271604937e+00 2.965218460648148202e+00 2.970912422839506295e+00 2.955991994598765160e+00 2.965653935185185386e+00 2.993155381944444304e+00 3.002660108024691521e+00 2.983029031635802575e+00 2.984304591049382616e+00 2.988958333333333162e+00 3.031970968364197550e+00 3.062193287037036971e+00 3.071033468364197550e+00 3.066722608024691432e+00 2.934877989969135736e+00 2.805653935185184800e+00 2.763639564043209873e+00 2.720390142746913487e+00 2.743525752314814881e+00 2.780661651234567877e+00 2.839733314043209944e+00 2.885353491512345769e+00 2.892900752314814472e+00 2.864988425925925952e+00 2.844622395833332984e+00 2.878992091049382473e+00 2.924160879629629672e+00 2.953937114197530800e+00 2.951152584876543195e+00 2.941167534722222143e+00 2.913218074845679073e+00 2.915429205246913735e+00 2.935647665895061653e+00 2.964546682098765373e+00 2.987689043209876605e+00 3.004324363425925792e+00 3.015233892746913558e+00 2.993102816358024665e+00 2.999664834104938560e+00 3.028455343364197638e+00 3.057351948302469147e+00 3.041417824074073906e+00 2.901921778549382935e+00 2.755808256172839421e+00 2.697635513117284223e+00 2.682419945987654319e+00 2.679605034722222001e+00 2.698399402006173009e+00 2.694276138117284169e+00 2.731987847222222321e+00 2.783469810956789914e+00 2.809685570987654479e+00 2.808559510030864015e+00 2.804421778549382793e+00 2.835133101851851745e+00 2.887046682098765249e+00 2.920144675925925970e+00 2.934935860339506153e+00 2.909047550154320927e+00 2.896755883487654337e+00 2.890380497685185457e+00 2.889867862654321051e+00 2.918217592592592613e+00 2.947309510030863944e+00 2.977598379629629921e+00 2.998253279320987730e+00 3.001218171296296422e+00 3.002731963734567966e+00 3.001694155092592631e+00 3.024898726851851904e+00 3.035998263888889159e+00 3.015367476851852135e+00 2.884658082561728509e+00 2.767638406635802184e+00 2.714582851080247217e+00 2.691157407407407387e+00 2.686118344907407529e+00 2.698888888888888893e+00 2.715828510802469342e+00 2.761851369598765427e+00 2.828226273148148007e+00 2.855999710648148504e+00 2.862254533179012128e+00 2.878809317129629619e+00 2.899042727623456717e+00 2.954234182098765427e+00 2.946569251543210033e+00 2.915680459104938560e+00 2.897318672839506171e+00 2.890742187499999893e+00 2.898729745370370647e+00 2.937273823302469111e+00 2.963111496913580112e+00 2.980624035493827151e+00 2.997444058641975495e+00 3.008215181327160703e+00 3.022534239969135950e+00 3.052706886574074296e+00 3.040643325617284010e+00 3.029861111111110894e+00 3.051190682870370097e+00 3.032524112654320980e+00 2.931415895061728616e+00 2.808168885030864370e+00 2.769969618055555305e+00 2.743878279320987712e+00 2.738203125000000071e+00 2.766023341049382633e+00 2.870506365740740584e+00 2.920787519290123591e+00 2.940180844907407387e+00 2.913651138117284045e+00 2.885797164351851851e+00 2.896341628086419817e+00 2.952013406635802362e+00 3.000445119598765586e+00 3.016195505401234378e+00 3.000363618827160295e+00 2.996575520833333339e+00 2.980968846450617438e+00 2.987589216820987659e+00 3.001193576388888840e+00 3.015089699074073870e+00 3.022793209876543319e+00 3.045212191358024789e+00 3.067859278549382562e+00 3.068675733024691432e+00 3.078655960648148504e+00 3.076752507716049134e+00 2.998896604938271704e+00 2.906688850308642103e+00 2.771591917438271491e+00 2.740419560185185066e+00 2.725441743827160312e+00 2.732978877314814703e+00 2.760593171296296333e+00 2.802414158950617296e+00 2.850112364969135559e+00 2.879662905092592595e+00 2.881395640432098837e+00 2.843495370370370257e+00 2.830315875771604706e+00 2.859344135802469378e+00 2.913391685956789878e+00 2.950296585648148007e+00 2.946937210648147953e+00 2.922254050925926272e+00 2.905229070216049259e+00 2.911959394290123626e+00 2.943944830246913558e+00 2.956337287808641801e+00 2.985543016975308550e+00 3.010748939043209838e+00 3.023020351080246915e+00 3.044767071759259203e+00 3.040653935185185119e+00 3.043013599537037095e+00 3.039907407407407280e+00 3.051160300925926272e+00 2.932814911265432034e+00 2.897636959876543017e+00 2.780842013888888520e+00 2.730021701388888999e+00 2.696771315586419693e+00 2.674999999999999822e+00 2.675416666666666554e+00 2.704916570216049365e+00 2.748451485339506117e+00 2.785423900462963065e+00 2.785026523919753139e+00 2.778002025462963154e+00 2.799971064814814614e+00 2.845395929783950617e+00 2.886864872685185102e+00 2.904166184413580432e+00 2.891662326388888982e+00 2.888011670524691432e+00 2.911773726851851762e+00 2.922741608796296298e+00 2.924956114969135879e+00 2.945988618827160455e+00 2.955601851851851869e+00 2.966959394290123342e+00 2.984985532407407494e+00 2.998997878086419711e+00 3.003301986882715990e+00 2.995027970679012608e+00 3.018805459104938471e+00 3.039128568672839759e+00 2.943058449074074101e+00 2.831264949845679002e+00 2.869916570216049401e+00 2.787562692901234929e+00 2.739021508487654355e+00 2.733927951388888999e+00 2.742502893518518281e+00 2.776234567901234573e+00 2.835635609567901394e+00 2.858272087191358057e+00 2.846390335648148362e+00 2.866714891975308710e+00 2.907327353395061653e+00 2.941264467592592968e+00 2.933977141203703898e+00 2.911087962962962905e+00 2.890470679012346000e+00 2.904265528549383024e+00 2.916910686728395152e+00 2.947784529320987890e+00 2.977781153549382775e+00 2.991455439814814543e+00 3.010838155864197674e+00 3.010094521604938400e+00 3.018122106481481381e+00 3.021913097993827346e+00 3.034421296296296422e+00 3.046392264660493954e+00 3.019692804783950635e+00 2.879643614969135790e+00 2.780503472222222161e+00 2.731141975308641889e+00 2.821100501543210015e+00 2.813947241512345432e+00 2.815556037808641943e+00 2.844757908950616976e+00 2.871745273919752872e+00 2.896141010802469218e+00 2.883948688271604777e+00 2.860593653549382775e+00 2.857142650462963118e+00 2.883448591820987783e+00 2.926915991512345272e+00 2.942317708333333393e+00 2.934282889660493776e+00 2.909882812500000249e+00 2.916548032407407121e+00 2.918512249228395472e+00 2.949498456790123679e+00 2.963795331790123555e+00 2.990989583333333535e+00 3.015448495370370185e+00 3.021502218364197745e+00 3.025388695987654142e+00 3.018845486111111143e+00 3.002593557098765409e+00 3.013664641203703809e+00 2.897975501543210264e+00 2.799705343364197407e+00 2.705553626543209855e+00 2.679903067129629335e+00 2.666815682870370185e+00 2.683791956018518832e+00 2.802304205246913593e+00 2.815195794753086567e+00 2.829289158950617278e+00 2.833009741512345858e+00 2.803275462962962816e+00 2.778566743827160401e+00 2.808258584104938560e+00 2.855739293981481630e+00 2.891479070216049330e+00 2.883061342592592613e+00 2.864901620370370328e+00 2.864338831018518494e+00 2.872577642746913629e+00 2.889055748456789807e+00 2.904824942129629495e+00 2.946550925925925934e+00 2.963575906635802504e+00 2.970751832561728367e+00 2.979633487654321122e+00 2.983867187500000018e+00 2.973949652777777786e+00 2.981940104166666661e+00 3.004472897376543106e+00 2.945928337191358271e+00 2.824139660493826920e+00 2.695642843364197461e+00 2.667498553240740922e+00 2.643021315586419728e+00 2.653908661265432123e+00 2.655963059413580130e+00 2.672691454475308426e+00 2.781433256172839208e+00 2.789929108796296298e+00 2.780455246913580591e+00 2.766875482253086105e+00 2.773255690586419409e+00 2.803185281635802273e+00 2.851573109567901110e+00 2.859521604938271455e+00 2.835288869598765249e+00 2.825227623456790127e+00 2.843385416666666554e+00 2.865763406635802646e+00 2.891516203703703880e+00 2.924309895833333339e+00 2.932330729166666927e+00 2.951868730709876321e+00 2.947515914351851674e+00 2.957307581018518761e+00 2.972126736111111001e+00 2.995744598765432087e+00 3.006378279320987890e+00 2.920699266975308905e+00 2.796814718364197816e+00 2.722796103395061618e+00 2.690949556327160153e+00 2.670244502314814472e+00 2.690223765432098624e+00 2.705982831790123555e+00 2.741053722993826991e+00 2.796260127314814881e+00 2.816067708333333197e+00 2.782249710648148078e+00 2.751082658179012430e+00 2.763294753086419586e+00 2.804354263117283974e+00 2.847810088734568090e+00 2.875241608796296422e+00 2.873383969907407298e+00 2.882848668981481399e+00 2.881555266203703614e+00 2.881472800925926059e+00 2.893850790895061920e+00 2.921902006172839350e+00 2.930526620370370150e+00 2.965554591049382793e+00 2.977482156635802735e+00 2.986866801697531049e+00 2.977179301697530978e+00 2.996037326388889088e+00 3.008678144290123591e+00 3.000273919753086105e+00 2.876826774691358057e+00 2.757031732253086176e+00 2.722696277006172672e+00 2.687854456018518690e+00 2.694569347993827080e+00 2.740007233796295960e+00 2.812231867283950582e+00 2.866105806327160721e+00 2.894246720679012341e+00 2.872654320987654497e+00 2.822528935185185439e+00 2.804354263117283974e+00 2.821074942129629726e+00 2.859623842592592613e+00 2.888716724537037095e+00 2.884483506944444553e+00 2.891250482253086673e+00 2.895598476080246897e+00 2.903433641975308621e+00 2.928282214506172654e+00 2.935955343364197390e+00 2.962105999228394904e+00 2.991800733024691183e+00 2.996806037808641854e+00 3.009239486882715919e+00 3.013056037808641729e+00 3.005247878086419799e+00 3.005045331790123342e+00 2.849039351851851976e+00 2.718378665123456717e+00 2.670177469135802450e+00 2.643305362654321033e+00 2.628381558641975424e+00 2.651997974537037006e+00 2.671911168981481399e+00 2.731076871141975282e+00 2.787436824845678895e+00 2.791094714506173080e+00 2.768505015432098926e+00 2.764006558641975086e+00 2.791620852623456717e+00 2.798128858024691024e+00 2.819355709876543159e+00 2.834943094135802255e+00 2.843518036265432425e+00 2.835581597222222250e+00 2.855975597993826831e+00 2.867286361882716239e+00 2.911729841820987819e+00 2.928368055555555571e+00 2.927352430555555607e+00 2.929872202932098713e+00 2.939206211419752801e+00 2.945148051697530800e+00 2.964540412808641889e+00 2.985215084876543301e+00 2.840934606481481328e+00 2.686437114197530729e+00 2.630676601080247146e+00 2.600410879629629690e+00 2.595016878858024789e+00 2.593931809413580591e+00 2.594532696759259238e+00 2.632101176697530853e+00 2.700594618055555785e+00 2.740701195987654160e+00 2.757389081790123431e+00 2.756206114969135701e+00 2.777010513117283974e+00 2.827811535493827133e+00 2.850484182098765640e+00 2.790838155864197478e+00 2.812771990740740691e+00 2.826821952160493812e+00 2.845241126543210264e+00 2.865476948302469129e+00 2.885111400462962994e+00 2.897589216820987801e+00 2.908063271604938382e+00 2.893766396604938063e+00 2.891905864197530818e+00 2.908446180555555483e+00 2.904244309413580361e+00 2.915798611111111160e+00 2.935607638888888982e+00 2.950688175154321247e+00 2.813947723765432229e+00 2.681752507716049561e+00 2.636649787808642120e+00 2.609840374228395099e+00 2.600774016203703631e+00 2.603829571759259220e+00 2.611915991512345769e+00 2.664834587191358128e+00 2.731461709104938240e+00 2.774492669753086282e+00 2.768118248456790109e+00 2.761049382716049383e+00 2.788487654320987552e+00 2.836921778549382545e+00 2.861940104166666554e+00 2.852581018518518530e+00 2.806285204475308603e+00 2.821045042438271366e+00 2.837056809413580183e+00 2.878790991512345521e+00 2.895437885802468969e+00 2.908671875000000018e+00 2.901054205246913487e+00 2.905569058641975122e+00 2.918928433641975406e+00 2.919371624228395135e+00 2.930813078703703667e+00 2.928039158950617615e+00 2.952636477623456823e+00 2.889845679012345681e+00 2.775830922067901163e+00 2.657674575617284152e+00 2.636737557870370008e+00 2.615001446759259274e+00 2.632650462962963012e+00 2.666097125771604848e+00 2.729286265432098624e+00 2.795062692901234769e+00 2.813194926697530907e+00 2.789850501543210015e+00 2.745146122685185208e+00 2.721957465277777821e+00 2.732862654320987961e+00 2.781231674382715902e+00 2.841843653549382953e+00 2.869932002314814934e+00 2.883794849537037130e+00 2.790574845679012039e+00 2.784830729166666519e+00 2.795528549382715777e+00 2.815533371913580218e+00 2.852690489969135879e+00 2.871705246913580201e+00 2.896070119598765480e+00 2.905800057870370434e+00 2.889895833333333552e+00 2.900225694444444446e+00 2.772625385802469200e+00 2.630789448302468969e+00 2.577156635802469342e+00 2.558196373456790074e+00 2.549650848765431910e+00 2.762660108024691752e+00 3.021527777777777590e+00 3.133184799382715990e+00 3.108102334104938080e+00 3.093654996141975033e+00 3.072878086419753352e+00 3.051428915895061600e+00 3.057952353395061440e+00 3.083702739197530907e+00 3.099683159722222303e+00 3.100516493055555767e+00 3.110201099537037273e+00 3.119958043981481577e+00 3.131116898148147865e+00 3.151652199074074456e+00 3.205352527006172902e+00 3.219747781635802664e+00 3.231277488425925881e+00 3.223004918981481559e+00 3.226728395061728705e+00 3.233867187500000018e+00 3.231060474537037042e+00 3.222660590277777626e+00 3.205744116512345698e+00 3.197487461419753263e+00 3.063666570216049490e+00 3.009617091049382687e+00 2.967679398148148184e+00 2.961457368827160153e+00 2.947810570987654089e+00 2.949699074074074279e+00 2.940948591820987890e+00 2.950099826388888680e+00 2.985783661265432265e+00 3.011953125000000231e+00 3.005289351851851976e+00 2.997608989197531049e+00 3.024957561728395472e+00 3.085428240740740513e+00 3.124670138888888893e+00 3.143267746913580130e+00 3.129519675925926059e+00 3.123869116512346000e+00 3.132663966049382687e+00 3.147757040895061920e+00 3.164291087962962656e+00 3.188492476851851887e+00 3.212202449845678931e+00 3.243657889660493954e+00 3.250051601080246932e+00 3.246744791666666519e+00 3.225287905092592666e+00 3.206753472222222179e+00 3.206843171296296369e+00 3.228298128858024807e+00 3.232368344907407209e+00 3.111048418209876321e+00 3.041080246913580254e+00 3.006587577160494185e+00 2.992065489969136127e+00 2.980749903549382740e+00 2.993421585648147865e+00 2.999948398919753068e+00 3.029475308641975229e+00 3.083399884259259149e+00 3.101182484567901465e+00 3.091479552469135861e+00 3.088629918981481648e+00 3.108665123456789914e+00 3.136110146604937921e+00 3.167373649691358040e+00 3.152090084876543408e+00 3.152324459876543195e+00 3.148084972993827169e+00 3.156560570987654302e+00 3.179599729938271224e+00 3.193417727623456770e+00 3.219829282407407511e+00 3.237137827932099032e+00 3.252739679783950510e+00 3.253785686728394744e+00 3.256780960648148149e+00 3.233728298611111107e+00 3.226955536265431856e+00 3.154332561728395046e+00 3.100162037037037077e+00 3.012264660493827240e+00 3.004502797067901465e+00 2.999402970679012181e+00 3.017214506172839705e+00 3.047618152006172920e+00 3.100320216049382793e+00 3.143708043981481737e+00 3.143864776234567504e+00 3.096203703703703791e+00 3.041172839506173009e+00 3.042332175925925863e+00 3.085081018518518459e+00 3.132853973765432176e+00 3.175857445987654071e+00 3.180305266203703685e+00 3.177153742283950866e+00 3.158893711419753281e+00 3.174819637345678736e+00 3.192828896604938294e+00
