2.011487591628086307e+02 2.011416792052469305e+02 2.010803419174382611e+02 2.009509514853395160e+02 2.008684100115740705e+02 2.008973456790123464e+02 2.009624874614197552e+02 2.010302449845679007e+02 2.011142669753086238e+02 2.011899855324074053e+02 2.011485368441358048e+02 2.010304214891975221e+02 2.009246928047839731e+02 2.008664467592592757e+02 2.008284230324074144e+02 2.008109514853395012e+02 2.006767182677469350e+02 2.004878534915123396e+02 2.002681462191358150e+02 1.999824725115740875e+02 1.996746098572530741e+02 1.993265813078703843e+02 1.990381495949074235e+02 1.987977348572530900e+02 1.987236226851852052e+02 1.987212109374999898e+02 1.988006804591049388e+02 1.989172212577160508e+02 1.990633574459876627e+02 1.992205039544753049e+02 1.991145867091049126e+02 1.990025549768518545e+02 1.994060551697530741e+02 2.010122217399691351e+02 2.028135845871913716e+02 2.045496325231481478e+02 2.050599575617283961e+02 2.053893282214506257e+02 2.056023331404321084e+02 2.057271547067901167e+02 2.058143648726851893e+02 2.058710927854938291e+02 2.059359722222222331e+02 2.059922791280864374e+02 2.060508101851851848e+02 2.061141131365740762e+02 2.061963835841049502e+02 2.062650935570987656e+02 2.063367394868827205e+02 2.063805005787037032e+02 2.063817544367284142e+02 2.062875800540123521e+02 2.061620404128086363e+02 2.060615692515432045e+02 2.059939130015432340e+02 2.059331346450617275e+02 2.058809611304012321e+02 2.058438898533950407e+02 2.058328250385802676e+02 2.058148085455246985e+02 2.057888710455247008e+02 2.057760513117283949e+02 2.058144208140432170e+02 2.058088073881172875e+02 2.057597805748456778e+02 2.057590557484568023e+02 2.057596590470678848e+02 2.057887731481481524e+02 2.058251480516975107e+02 2.058505063657407277e+02 2.058048037229938245e+02 2.056942182677469191e+02 2.055648451967592507e+02 2.054635691550925856e+02 2.053970380015432227e+02 2.053498967978395058e+02 2.053195331790123248e+02 2.053240190972222194e+02 2.053122974537037067e+02 2.053010435956790047e+02 2.053076200810185128e+02 2.053004817708333576e+02 2.053259924768518374e+02 2.053552642746913648e+02 2.053882928240740853e+02 2.054274392361110984e+02 2.054640764853395183e+02 2.055062393904321141e+02 2.055374966242283961e+02 2.054934992283950521e+02 2.053676456404321016e+02 2.052294015239197336e+02 2.051054981674382702e+02 2.048577155671296453e+02 2.048505917245370540e+02 2.047940923996913511e+02 2.047858695023148243e+02 2.047796228780864283e+02 2.047726147762345477e+02 2.047587528935185048e+02 2.047669097222222376e+02 2.047830015432098776e+02 2.048024508101851779e+02 2.048248611111111188e+02 2.048705179398148175e+02 2.049114973958333223e+02 2.049599382716049547e+02 2.050178178047839594e+02 2.050392312885802255e+02 2.049671469907407300e+02 2.048510315393518511e+02 2.047346875000000068e+02 2.046440374228395171e+02 2.045878742283950658e+02 2.045277782600308569e+02 2.045000892168209816e+02 2.044988782793209907e+02 2.044932653356481467e+02 2.044874927662037010e+02 2.044835585455246871e+02 2.044819762731481489e+02 2.044974483989197438e+02 2.045337982253086295e+02 2.045691575038580083e+02 2.045264163773148312e+02 2.045896161265432340e+02 2.046259707754629460e+02 2.046952932098765245e+02 2.047745119598765484e+02 2.048356582754629471e+02 2.048150207368827012e+02 2.047285190007715983e+02 2.046229513888889073e+02 2.045404181134259147e+02 2.044714863040123305e+02 2.044112914737654307e+02 2.043770818865740750e+02 2.043603096064814792e+02 2.043620278742284029e+02 2.043594029706790138e+02 2.043459543788580390e+02 2.043647853973765507e+02 2.043890099344135933e+02 2.044247038966049388e+02 2.044870206404320925e+02 2.045344753086419871e+02 2.046034977816358094e+02 2.046600925925925765e+02 2.047125790895061641e+02 2.047698099922839674e+02 2.048358256172839731e+02 2.049102739197530809e+02 2.049866015624999989e+02 2.050126080246913602e+02 2.049400790895061846e+02 2.047226249035493879e+02 2.047244709683641872e+02 2.046745765817901201e+02 2.046396368634259204e+02 2.045987442129629414e+02 2.045881515239197483e+02 2.046009919945987576e+02 2.046011540316358150e+02 2.046122897376543222e+02 2.046244777199074178e+02 2.046632585841049377e+02 2.047316126543209975e+02 2.047740461033950510e+02 2.048408666087962899e+02 2.049018909143518385e+02 2.049689231288580231e+02 2.050404648919753186e+02 2.051199315200617264e+02 2.051946190200617366e+02 2.052631925154321095e+02 2.053096802662036851e+02 2.052972704475308774e+02 2.052087683256172852e+02 2.051252811535493947e+02 2.050598770254629528e+02 2.050152758487654410e+02 2.049798288001543369e+02 2.049640350115740546e+02 2.049604644097222206e+02 2.049855733989197688e+02 2.049990436921296464e+02 2.049653279320987735e+02 2.050096682098765655e+02 2.050260479359567967e+02 2.050915248842592575e+02 2.051862635030864226e+02 2.052704325810185253e+02 2.053641126543209907e+02 2.054450887345678893e+02 2.055214043209876422e+02 2.056005743634259204e+02 2.056739998070987667e+02 2.056753110532407334e+02 2.056077744020061857e+02 2.055210966435185185e+02 2.054580290316358173e+02 2.054327623456790093e+02 2.054066377314814815e+02 2.053855598958333246e+02 2.053945717592592644e+02 2.054238025655864135e+02 2.054409842785493936e+02 2.054337707368827068e+02 2.054575626929012344e+02 2.054967616705246769e+02 2.055424064429012390e+02 2.055942028356481615e+02 2.056495601851851802e+02 2.056958453896604908e+02 2.057649074074074065e+02 2.058388956404320993e+02 2.059013445216049547e+02 2.060893267746913580e+02 2.061344280478394921e+02 2.060551866319444514e+02 2.059279316165123248e+02 2.058030102237654262e+02 2.057238990162037169e+02 2.056711029128086352e+02 2.055879528356481671e+02 2.055772574266975425e+02 2.055932860725308728e+02 2.055986130401234391e+02 2.056007899305555497e+02 2.056169237075617389e+02 2.056401929012345704e+02 2.056895577739197449e+02 2.057495008680555486e+02 2.058046002121913602e+02 2.058637509645061812e+02 2.059337456597222342e+02 2.060003829089506269e+02 2.060592110339506178e+02 2.061248760609567796e+02 2.061765398341049433e+02 2.061435691550925924e+02 2.060324638310185321e+02 2.059251384066357957e+02 2.058474527391975357e+02 2.057879123263888914e+02 2.057404417438271764e+02 2.057122540509259352e+02 2.056649884259259125e+02 2.056861906828703752e+02 2.056765668402777862e+02 2.056748591820987713e+02 2.057061511381172636e+02 2.057395958719135933e+02 2.057958810763888948e+02 2.058548003472222376e+02 2.059160561342592644e+02 2.059825868055555702e+02 2.060457933063271412e+02 2.061174532214506314e+02 2.061928708526234573e+02 2.062778192515432067e+02 2.063369970100308421e+02 2.063259649884259090e+02 2.062430541087963149e+02 2.061529046103395046e+02 2.060799517746913807e+02 2.060318417245370313e+02 2.060009799382715983e+02 2.059874575617284052e+02 2.059860609567901122e+02 2.060046431327160406e+02 2.060075400270061721e+02 2.060308661265432022e+02 2.060562852044753015e+02 2.060980488040123362e+02 2.061574734760802414e+02 2.062203694058642043e+02 2.062748326581790081e+02 2.063843229166666617e+02 2.064625168788580254e+02 2.065194381751543062e+02 2.065744579475308740e+02 2.065912254050925867e+02 2.065099556327160428e+02 2.064052401620370176e+02 2.063110715663580379e+02 2.062407542438271548e+02 2.062104364390432067e+02 2.061844121334876547e+02 2.061842472029320845e+02 2.061982026427469350e+02 2.062125752314814804e+02 2.062114583333333258e+02 2.062178862847222263e+02 2.062376813271604874e+02 2.062773943865740875e+02 2.063167525077160462e+02 2.063801403356481501e+02 2.064441169945987724e+02 2.064937384259259261e+02 2.065715639467592553e+02 2.066200699266975107e+02 2.066123403742284097e+02 2.065075279706790354e+02 2.063702869405863964e+02 2.062447082368827012e+02 2.061534654706790093e+02 2.060835802469135842e+02 2.060383444251543210e+02 2.059341454475308524e+02 2.059637085262345693e+02 2.059432306134259250e+02 2.059165282600308728e+02 2.059305941358024654e+02 2.059437302276234618e+02 2.060405753279320891e+02 2.060964178240740807e+02 2.061578809799382555e+02 2.062219102044753072e+02 2.062763102816358014e+02 2.063564342206790059e+02 2.063787128665123305e+02 2.063178120177469168e+02 2.061809302662037169e+02 2.060414409722222331e+02 2.059357397762345840e+02 2.058604224537037055e+02 2.057865673225308569e+02 2.057488720100308512e+02 2.057280005787036998e+02 2.057246995563271525e+02 2.057074744405864237e+02 2.057038107638888960e+02 2.057089038387345852e+02 2.057458256172839413e+02 2.057891541280864374e+02 2.058516507523148107e+02 2.059034702932098924e+02 2.059823297646604772e+02 2.060682532793209703e+02 2.061401914544753140e+02 2.061919574652777669e+02 2.061999025848765541e+02 2.061218108603395081e+02 2.059962934027777806e+02 2.058824565972222160e+02 2.057805680941358162e+02 2.057132171103395137e+02 2.056511747685185014e+02 2.056136323302469293e+02 2.056036193094135740e+02 2.056086255787036805e+02 2.055953057484567807e+02 2.056002903163580129e+02 2.056242920524691442e+02 2.056538194444444514e+02 2.057170524691357798e+02 2.057673476080246928e+02 2.058415234375000011e+02 2.058988078703703763e+02 2.059718860918210055e+02 2.060403515625000068e+02 2.061109399112654330e+02 2.061556611689814815e+02 2.060902266589506269e+02 2.059622405478395137e+02 2.058286569251543199e+02 2.057410455246913443e+02 2.056741782407407300e+02 2.056204460841049126e+02 2.054947675540123555e+02 2.055211834490740728e+02 2.055039891975308421e+02 2.055077715084876502e+02 2.055173804012345897e+02 2.055476075424382714e+02 2.056040634645061687e+02 2.056550323109568126e+02 2.057100308641975346e+02 2.057660768711419621e+02 2.058284235146604999e+02 2.058847931134259284e+02 2.059350236304012469e+02 2.059729354745370529e+02 2.059350708912037078e+02 2.058096706211419757e+02 2.056763859953703673e+02 2.055752088155864215e+02 2.055033145254629687e+02 2.054461284722222274e+02 2.054107388117284074e+02 2.054056095679012230e+02 2.054141194058641986e+02 2.054050974151234641e+02 2.054115350115740739e+02 2.054376576967592598e+02 2.054586940586419814e+02 2.055108294753086398e+02 2.055681240354938097e+02 2.056340948109567819e+02 2.056932031249999966e+02 2.058075245949073917e+02 2.058882069830247019e+02 2.059460624035494050e+02 2.059956968557098662e+02 2.059905082947530843e+02 2.058825959683641997e+02 2.056390581597222251e+02 2.055760334683641872e+02 2.055171624228395046e+02 2.054672593557098708e+02 2.054628679591049547e+02 2.054636511381172852e+02 2.054621064814814986e+02 2.054757065007716221e+02 2.054942771026234709e+02 2.055264380787037055e+02 2.055849049961419723e+02 2.056453993055555429e+02 2.057237861689814622e+02 2.058018962191358128e+02 2.058806669560185014e+02 2.059476548032407379e+02 2.060231066743827171e+02 2.060971874999999898e+02 2.061644753086419826e+02 2.061634283371913625e+02 2.060662774884259250e+02 2.059370486111111234e+02 2.058411111111111040e+02 2.057776784336419666e+02 2.056517631172839629e+02 2.056499324845678984e+02 2.056256192129629596e+02 2.056284596836419780e+02 2.056384881365740966e+02 2.056470129243827216e+02 2.056528877314814849e+02 2.056875356867284097e+02 2.057305078124999795e+02 2.057971407214506314e+02 2.058566160300925958e+02 2.059304788773148118e+02 2.060036559606481319e+02 2.060806274112654251e+02 2.061588908179012378e+02 2.062335980902777806e+02 2.063262533757715858e+02 2.063665215084876650e+02 2.063008613040123578e+02 2.061795775462963149e+02 2.060708622685185105e+02 2.060094849537036907e+02 2.059616801697530946e+02 2.059151171875000159e+02 2.059118663194444423e+02 2.059108352623456710e+02 2.059139149305555634e+02 2.059055603780864203e+02 2.058990345293209998e+02 2.059136545138889005e+02 2.059532460455247076e+02 2.060060165895061743e+02 2.060723668981481467e+02 2.061143552276234345e+02 2.061827623456790093e+02 2.062545471643518624e+02 2.063271445794752879e+02 2.063906365740740796e+02 2.063510566165123521e+02 2.062319536072530752e+02 2.061053944830246962e+02 2.060135652970678848e+02 2.059508323688271503e+02 2.059162919560185117e+02 2.058940031828703638e+02 2.058912726658950874e+02 2.058983535879629585e+02 2.058981303047839617e+02 2.059093219521604965e+02 2.059177073688271662e+02 2.059460619212963195e+02 2.060042881944444559e+02 2.060630126350308728e+02 2.061244333526234698e+02 2.062012914737654512e+02 2.062746050347222138e+02 2.063408868634259079e+02 2.064057749807098787e+02 2.063844738618827250e+02 2.062569010416666799e+02 2.060961086998456722e+02 2.059642081404321061e+02 2.057546971450617264e+02 2.057573524305555566e+02 2.056929431905864192e+02 2.056626094714506223e+02 2.056654832175925947e+02 2.056562823109567830e+02 2.056559085648148084e+02 2.056772289737654376e+02 2.057216353202160519e+02 2.057768504050926026e+02 2.058470736882715926e+02 2.059094627700617366e+02 2.059715673225308592e+02 2.060433342978395217e+02 2.061124117476852007e+02 2.061628882137345897e+02 2.061532460455246962e+02 2.060325998263888891e+02 2.058687239583333337e+02 2.057428395061728281e+02 2.056577252121913659e+02 2.055926186342592814e+02 2.055419613233024734e+02 2.055041579861111245e+02 2.055088937114197449e+02 2.055210098379629642e+02 2.055202874228395160e+02 2.055322106481481512e+02 2.055556317515432170e+02 2.055966386959876502e+02 2.055713980516975425e+02 2.056333521412037157e+02 2.056819700038580265e+02 2.057523794367284040e+02 2.058252850115740671e+02 2.058992385223765496e+02 2.059698230131172636e+02 2.060354788773148300e+02 2.060412577160493584e+02 2.059484702932098799e+02 2.057979673032407391e+02 2.056798866705246951e+02 2.056035874807098764e+02 2.055507354359567955e+02 2.055001929012345840e+02 2.054725569058641952e+02 2.054845809220678916e+02 2.054793803047839731e+02 2.054687442129629460e+02 2.054726576967592564e+02 2.054903462577160269e+02 2.055252517361111302e+02 2.055712157600308672e+02 2.056219444444444662e+02 2.056646397569444389e+02 2.057207021604938291e+02 2.057824889081790047e+02 2.058461757330246940e+02 2.058978206983024677e+02 2.059026268325617366e+02 2.057725202546296259e+02 2.054339149305555452e+02 2.054219555362654148e+02 2.053594618055555543e+02 2.053053409529320845e+02 2.052650935570987656e+02 2.052560185185185162e+02 2.052586168981481478e+02 2.052450000000000045e+02 2.052438392168209873e+02 2.052398837770061846e+02 2.052586906828703661e+02 2.052977319637345488e+02 2.053495023148147993e+02 2.054181365740740546e+02 2.054732494212962877e+02 2.055392616705246951e+02 2.056074286265432249e+02 2.056646576003086295e+02 2.057373799189814747e+02 2.057745500578703854e+02 2.057291883680555600e+02 2.055968706597222138e+02 2.054503182870370495e+02 2.053384317129629721e+02 2.052586487268518738e+02 2.051994507137345636e+02 2.051481486304012378e+02 2.051289110725308831e+02 2.051179132908950464e+02 2.050983767361111347e+02 2.050873697916666742e+02 2.049574874614197597e+02 2.050023683449074099e+02 2.050335305748456847e+02 2.050914125192901167e+02 2.052159891010802255e+02 2.052798890817901167e+02 2.053574623842592644e+02 2.054397106481481501e+02 2.055330758101851814e+02 2.055967563657407595e+02 2.055806611689814929e+02 2.054749773341049490e+02 2.053312244405863964e+02 2.052253578317901201e+02 2.051515571952160428e+02 2.050917626350308467e+02 2.050422593557098878e+02 2.050305406057098878e+02 2.050334596836419507e+02 2.050414573688271673e+02 2.050412495177469054e+02 2.050609138695987781e+02 2.050886660879629630e+02 2.051335561342592655e+02 2.051933863811728429e+02 2.052642520254629517e+02 2.053194058641975346e+02 2.053866652199074281e+02 2.054591652199074190e+02 2.055367341820987690e+02 2.057022251157407595e+02 2.057868590856481319e+02 2.058009336419753197e+02 2.057272333140432181e+02 2.056025988618827114e+02 2.054746354166666720e+02 2.054000868055555600e+02 2.053583203124999841e+02 2.053190499614197506e+02 2.053186053240740705e+02 2.053215938464506110e+02 2.053200834297839492e+02 2.053156023341049377e+02 2.053239973958333167e+02 2.053434312307098821e+02 2.053716059027777874e+02 2.054187745949074042e+02 2.054846686921296453e+02 2.055486183449073962e+02 2.056124493634259238e+02 2.056677203896605022e+02 2.057217848186728588e+02 2.057783545524691533e+02 2.058230488040123305e+02 2.057981568287036964e+02 2.056651350308641781e+02 2.055074874614197427e+02 2.053795611496913693e+02 2.052862625385802460e+02 2.052107325424382793e+02 2.051609350887345897e+02 2.049838662229938393e+02 2.049881471836419564e+02 2.049794463734567955e+02 2.049609640239197574e+02 2.049556206597222285e+02 2.049742549189814724e+02 2.050035378086419655e+02 2.050493504050925822e+02 2.051002845293209873e+02 2.051581105324073917e+02 2.052076900077160531e+02 2.052687191358024847e+02 2.053549623842592666e+02 2.054309008487654467e+02 2.054751157407407334e+02 2.054420519868827171e+02 2.053200737847222115e+02 2.051743711419753140e+02 2.050610469714506223e+02 2.049976991705246974e+02 2.049391483410493890e+02 2.048905208333333405e+02 2.048792119984567819e+02 2.048780526620370495e+02 2.048803964120370438e+02 2.048992992862654319e+02 2.049184317129629562e+02 2.049769159915123566e+02 2.050349127121913568e+02 2.051207378472222160e+02 2.051938777970678984e+02 2.052974228395061687e+02 2.053646228780864078e+02 2.053935898919753242e+02 2.055431655092592678e+02 2.056261477623456813e+02 2.056554480131172795e+02 2.055714583333333110e+02 2.054380806327160371e+02 2.053356688850308558e+02 2.052534051890432067e+02 2.052165817901234561e+02 2.051799011381172875e+02 2.051818889853394978e+02 2.051956428433641975e+02 2.052188112461419678e+02 2.052467129629629596e+02 2.052695635609567830e+02 2.053024320023148164e+02 2.053539728009259306e+02 2.054184592013888846e+02 2.054959760802469191e+02 2.055612615740740807e+02 2.056350241126543210e+02 2.057148114390432170e+02 2.057798678626543278e+02 2.058657373649691351e+02 2.059345505401234391e+02 2.059140031828703741e+02 2.058004750192901326e+02 2.056619092399691340e+02 2.055041869212963093e+02 2.055198302469135854e+02 2.054789544753086545e+02 2.054567028356481728e+02 2.054669174382716221e+02 2.054858714313271548e+02 2.054965952932098787e+02 2.054986501736111109e+02 2.055193287037037067e+02 2.055390731095678802e+02 2.055783863811728338e+02 2.056350684799382691e+02 2.057042804783950771e+02 2.057777213541666583e+02 2.058419685570987667e+02 2.059025308641975300e+02 2.059747472993827273e+02 2.059785054976852052e+02 2.058863049768518465e+02 2.057290041473765427e+02 2.056004538001543267e+02 2.055135672260802551e+02 2.054551726466049502e+02 2.054269338348765359e+02 2.054233675733024711e+02 2.054365041473765245e+02 2.054427237654321061e+02 2.054484871720678996e+02 2.054572352430555497e+02 2.055025390625000057e+02 2.055489814814814622e+02 2.055648321759259147e+02 2.056413102816358105e+02 2.056851663773148005e+02 2.057552811535493902e+02 2.058514202353395035e+02 2.059311082175925947e+02 2.060117066936728349e+02 2.060161892361111029e+02 2.059165422453703798e+02 2.057483386381172750e+02 2.056047569444444605e+02 2.055115764853395035e+02 2.054355145640432170e+02 2.053753076774691522e+02 2.053432884837963002e+02 2.053363681520061732e+02 2.053386173804012174e+02 2.053399160879629619e+02 2.053448895640432283e+02 2.053655314429012435e+02 2.054006385030864124e+02 2.054448857060185105e+02 2.055099025848765564e+02 2.055851162229938041e+02 2.056559746334876593e+02 2.057249734760802369e+02 2.058006187307098855e+02 2.058638961226851904e+02 2.059316358024691169e+02 2.059352772955246849e+02 2.058253698881172795e+02 2.055097530864197495e+02 2.054900062692901201e+02 2.054196788194444423e+02 2.053322072723765359e+02 2.053201548032407402e+02 2.053377903163580243e+02 2.053362668788580265e+02 2.053476234567901031e+02 2.053592221257715948e+02 2.053928433641975460e+02 2.054437017746913625e+02 2.055049059606481308e+02 2.055870563271604965e+02 2.056623259066358003e+02 2.057370505401234482e+02 2.058020982831790207e+02 2.058825221836419814e+02 2.059479894868827046e+02 2.059968677662037067e+02 2.059580922067901270e+02 2.058335551697530832e+02 2.057025197723765473e+02 2.056217462384259136e+02 2.055736964699074178e+02 2.055239800347222285e+02 2.055249141589506223e+02 2.055311525848765655e+02 2.055456568287037271e+02 2.055427469135802312e+02 2.055394338348765473e+02 2.054923143325617332e+02 2.055518296682098764e+02 2.055759654706789945e+02 2.056379706790123407e+02 2.056915923996913591e+02 2.057728380594135729e+02 2.058438990162037214e+02 2.059107282021604988e+02 2.059697202932098605e+02 2.059339891975308774e+02 2.058097564621913591e+02 2.056637456597222240e+02 2.055619531250000023e+02 2.054933304398148266e+02 2.054631385030864124e+02 2.054439863040123555e+02 2.054652083333333223e+02 2.054502401620370335e+02 2.054404817708333155e+02 2.054392076581790150e+02 2.054467631172839504e+02 2.054655434992284029e+02 2.055134929591049229e+02 2.055760093557098855e+02 2.056271850887345636e+02 2.056956722608024677e+02 2.057504060570987576e+02 2.058194974922839435e+02 2.058752739197530843e+02 2.058681833526234755e+02 2.057553843557098787e+02 2.054073992091049377e+02 2.053655917245370404e+02 2.052935976080246974e+02 2.052418489583333212e+02 2.051910320216049399e+02 2.051563773148148186e+02 2.051561902006172886e+02 2.051536853780864078e+02 2.051420799575617195e+02 2.051330174575617207e+02 2.051498505015431988e+02 2.051785059799382793e+02 2.052320201581790116e+02 2.052829928626543108e+02 2.053451258680555611e+02 2.054161709104938041e+02 2.054885706018518476e+02 2.055485035686728281e+02 2.056030994405864192e+02 2.055764057677469054e+02 2.054494646990740705e+02 2.052856341628086341e+02 2.051518171296296202e+02 2.050535243055555554e+02 2.049728684413580027e+02 2.049138850308641793e+02 2.048855869020061959e+02 2.048839906442901224e+02 2.048774021026234493e+02 2.048500163966049286e+02 2.048553226273148198e+02 2.047300752314814929e+02 2.047726186342592598e+02 2.048695876736111074e+02 2.049441218171296271e+02 2.050177826003086352e+02 2.050888199266975107e+02 2.051634654706790002e+02 2.052505922067901167e+02 2.053095582561728349e+02 2.052814221643518522e+02 2.051504605516975346e+02 2.050086062885802676e+02 2.049283584104938143e+02 2.048611738040123669e+02 2.048171764081789945e+02 2.047701533564814724e+02 2.047572714120370279e+02 2.047540692515432283e+02 2.047565432098765541e+02 2.047508043981481478e+02 2.047663681520061800e+02 2.047987880979938211e+02 2.048367959104938336e+02 2.048945442708333360e+02 2.049524021026234664e+02 2.050224122299382543e+02 2.050943152006172738e+02 2.051497492283950521e+02 2.052308521412037123e+02 2.053041864390432067e+02 2.054128332368827046e+02 2.053794039351851950e+02 2.052259013310185196e+02 2.050865750385802357e+02 2.049987905092592655e+02 2.049380989583333417e+02 2.048968986304012390e+02 2.048792578125000148e+02 2.048881331983024836e+02 2.048891758294753060e+02 2.048695886381172784e+02 2.048687832754629596e+02 2.048763445216049490e+02 2.049089130015431977e+02 2.049632855902777919e+02 2.050400072337963024e+02 2.050979923804012230e+02 2.051541464120370222e+02 2.052025511188271594e+02 2.052708015046296453e+02 2.053121971450617309e+02 2.052935450424382680e+02 2.051801620370370358e+02 2.050302406442901031e+02 2.049170968364197449e+02 2.048298288001543312e+02 2.047679769483024756e+02 2.047423427854938041e+02 2.047354118441357969e+02 2.047265190972222229e+02 2.046981124614197540e+02 2.044928240740740648e+02 2.045146460262345727e+02 2.045228660300925867e+02 2.045516854745370381e+02 2.046024855324074281e+02 2.046535069444444446e+02 2.047126350308642202e+02 2.047874127121913546e+02 2.048755970293209998e+02 2.049710054976851836e+02 2.050538416280864169e+02 2.050887442129629505e+02 2.050146301118826955e+02 2.049012823109567876e+02 2.047996117862654160e+02 2.047087345679012174e+02 2.046459596836419621e+02
7.541111593364197674e+00 7.545354456018518619e+00 7.595125385802468543e+00 7.730735918209876267e+00 7.851385030864197034e+00 7.939772858796295907e+00 8.026908757716048726e+00 8.126841724537037237e+00 8.241683545524690402e+00 8.331053240740741828e+00 8.329760802469134973e+00 8.211442418981482305e+00 8.072262249228396414e+00 7.955869984567900843e+00 7.867645158179011666e+00 7.808672839506172636e+00 7.578326099537036953e+00 7.226174286265432123e+00 6.821741415895061778e+00 6.411586130401234485e+00 6.016524884259259132e+00 5.666772762345678949e+00 5.414467110339506561e+00 5.231147280092592666e+00 5.223891300154321016e+00 5.265798611111111249e+00 5.399026813271604830e+00 5.547227044753086034e+00 5.717297453703703347e+00 5.892123842592591920e+00 5.821692708333333854e+00 5.548040123456789985e+00 5.599675925925925668e+00 5.900555555555555998e+00 6.228247010030864672e+00 6.583149594907407476e+00 6.667730999228394850e+00 6.704197048611110432e+00 6.726253375771605647e+00 6.725794270833334032e+00 6.712785493827160721e+00 6.705115740740740016e+00 6.690176986882716115e+00 6.709660493827160899e+00 6.748929880401234094e+00 6.802077064043209553e+00 6.881794463734568268e+00 6.961563464506173027e+00 7.060408950617284241e+00 7.148765914351852047e+00 7.192142650462963083e+00 7.118914448302469111e+00 6.983890335648148096e+00 6.856856674382716399e+00 6.732303722993826511e+00 6.636053240740740655e+00 6.546085069444444571e+00 6.468967496141975637e+00 6.416225405092592204e+00 6.363508391203703596e+00 6.319129533179012270e+00 6.295557002314815520e+00 6.238127411265431910e+00 6.240297067901233952e+00 6.239323398919752961e+00 6.262171103395061778e+00 6.287873746141975140e+00 6.334947916666666679e+00 6.382583429783950990e+00 6.444013310185185084e+00 6.439112172067901874e+00 6.333162133487654444e+00 6.197462384259258883e+00 6.083275462962962621e+00 5.989355709876543088e+00 5.907612364969136109e+00 5.855678530092592204e+00 5.823386863425925597e+00 5.808382040895061493e+00 5.788664641203703276e+00 5.770301408179012270e+00 5.750389660493827826e+00 5.763082561728395170e+00 5.784056230709876623e+00 5.826498360339505744e+00 5.881016589506172565e+00 5.938086419753086709e+00 6.017158564814814703e+00 6.081581790123457232e+00 6.072653356481481524e+00 5.964310860339506526e+00 5.824340760030864317e+00 5.688177083333333606e+00 5.470602334104937903e+00 5.429597800925925810e+00 5.373081114969135541e+00 5.350317322530864672e+00 5.333899016203702992e+00 5.321089891975308461e+00 5.305991512345679340e+00 5.308344425154320589e+00 5.315688657407407369e+00 5.340223765432098979e+00 5.377894000771604510e+00 5.432947048611111107e+00 5.491010320216049401e+00 5.574334008487654479e+00 5.662261766975308142e+00 5.729347993827160757e+00 5.690123456790122880e+00 5.581221547067901412e+00 5.461673900462963083e+00 5.354266493055555465e+00 5.266263985339506348e+00 5.177329282407407085e+00 5.115958236882716115e+00 5.092070794753086993e+00 5.074645061728395135e+00 5.054058641975308852e+00 5.049732831790123555e+00 5.056308834876542591e+00 5.075490933641975566e+00 5.102866512345679340e+00 5.155502507716049010e+00 5.279919463734567664e+00 5.326460744598765729e+00 5.392833236882716541e+00 5.469925250771605185e+00 5.558217592592592737e+00 5.649542341820986913e+00 5.662882426697531280e+00 5.587934510030864388e+00 5.484839409722221504e+00 5.377009066358024114e+00 5.294771894290123626e+00 5.206936246141975921e+00 5.137587287808641712e+00 5.085006751543209802e+00 5.048028067129629370e+00 5.030518422067901341e+00 5.006556712962963118e+00 5.006491126543210157e+00 5.022964409722222356e+00 5.059892939814814916e+00 5.109646508487654337e+00 5.176155960648148202e+00 5.252119502314815058e+00 5.332270929783950564e+00 5.423851273148147634e+00 5.502366415895061813e+00 5.603945312500000497e+00 5.714980709876543052e+00 5.842404031635802575e+00 5.900466820987654515e+00 5.853568190586420528e+00 5.671953124999999929e+00 5.630203028549383149e+00 5.547993827160493829e+00 5.477255497685185937e+00 5.397943672839505602e+00 5.359962866512345769e+00 5.337803819444444819e+00 5.314864004629630045e+00 5.312937885802469395e+00 5.325295621141975744e+00 5.355150945216049507e+00 5.407931616512345663e+00 5.451494502314814916e+00 5.513013599537036846e+00 5.588157793209876267e+00 5.679581404320988014e+00 5.778876832561728349e+00 5.875096450617284027e+00 5.982317708333333428e+00 6.097097318672838995e+00 6.194676408179012661e+00 6.227348572530863713e+00 6.173949170524690722e+00 6.081686921296296511e+00 5.995038097993827364e+00 5.917508680555555678e+00 5.846862461419753743e+00 5.808134162808642031e+00 5.789293981481481666e+00 5.790510706018518583e+00 5.789009934413579472e+00 5.779176311728395632e+00 5.800687692901234094e+00 5.834977816358025038e+00 5.896736111111111178e+00 5.981414930555556175e+00 6.080191454475308177e+00 6.187723283179012768e+00 6.312046682098765515e+00 6.438779899691358111e+00 6.556124131944444322e+00 6.674602623456790340e+00 6.724849054783950564e+00 6.675525655864197105e+00 6.594554880401235053e+00 6.499398630401234556e+00 6.431451099537037308e+00 6.374206693672840096e+00 6.326240354938271970e+00 6.312768132716048974e+00 6.320553626543210513e+00 6.319322916666666679e+00 6.308997395833333854e+00 6.304608410493827364e+00 6.332086226851851407e+00 6.374929591049383504e+00 6.428976176697530853e+00 6.493973283179012235e+00 6.552556905864197923e+00 6.638543113425925846e+00 6.748232060185184622e+00 6.860935088734567699e+00 7.142207272376542626e+00 7.168945794753086354e+00 7.124575617283951168e+00 6.998590856481481381e+00 6.863911072530863855e+00 6.745845389660493296e+00 6.643816550925925490e+00 6.472599344135802291e+00 6.424474344135802539e+00 6.404740065586420172e+00 6.385061246141975566e+00 6.369206211419752961e+00 6.377196662808641392e+00 6.396687403549382367e+00 6.440177951388888822e+00 6.497914255401234129e+00 6.578636188271604901e+00 6.663330439814814987e+00 6.767119020061728385e+00 6.878611593364198029e+00 6.999099151234568161e+00 7.137774884259258990e+00 7.243015046296296333e+00 7.253337191358024683e+00 7.163693576388888928e+00 7.043808352623456948e+00 6.931927565586419426e+00 6.825801022376542626e+00 6.742361593364197603e+00 6.671443383487654977e+00 6.562830343364197461e+00 6.571675829475308817e+00 6.563070505401234378e+00 6.556169945987654124e+00 6.567729070216049791e+00 6.603164062500000320e+00 6.670086805555555998e+00 6.735644290123456557e+00 6.822489872685185475e+00 6.918380594135802752e+00 7.033514178240740655e+00 7.165974633487654621e+00 7.294157021604938507e+00 7.436089891975308674e+00 7.552511091820987232e+00 7.577123842592592418e+00 7.504920910493827257e+00 7.399486882716049152e+00 7.303026620370370203e+00 7.220403645833333606e+00 7.157611882716049756e+00 7.107673611111111178e+00 7.088429783950616958e+00 7.075289351851852260e+00 7.066216242283950066e+00 7.063873456790124017e+00 7.076840277777778354e+00 7.113670428240741472e+00 7.160849247685185937e+00 7.224219714506172174e+00 7.301652681327160721e+00 7.560526138117284134e+00 7.619759837962964077e+00 7.702506269290122276e+00 7.814621431327160472e+00 7.894873649691357187e+00 7.863143807870370594e+00 7.752201003086419462e+00 7.637343267746913078e+00 7.536827739197530462e+00 7.469758873456790127e+00 7.413786168981482128e+00 7.379549575617284418e+00 7.363076292438271331e+00 7.357255497685184942e+00 7.345666956018518157e+00 7.349502314814814419e+00 7.363924575617284418e+00 7.406421199845678593e+00 7.453777970679012377e+00 7.523879243827160224e+00 7.601131365740740442e+00 7.694403452932098375e+00 7.815494791666666607e+00 7.923367091049382083e+00 7.975908082561729451e+00 7.909058159722222037e+00 7.763706597222222783e+00 7.611948784722222250e+00 7.490141300154320447e+00 7.379813850308641676e+00 7.273475115740740016e+00 7.062785493827160366e+00 7.063389274691358466e+00 7.045040027006173489e+00 7.018707561728394495e+00 7.018363233024691006e+00 7.027053915895061564e+00 7.114193190586419746e+00 7.191001157407407085e+00 7.272353395061728065e+00 7.368911072530864637e+00 7.469472415123457054e+00 7.601150173611110894e+00 7.687904128086420208e+00 7.659929108796297292e+00 7.519657600308642387e+00 7.353931809413579934e+00 7.203548900462962479e+00 7.061781442901234662e+00 6.935813560956789914e+00 6.836714409722222108e+00 6.780017361111110752e+00 6.734770447530864068e+00 6.706275077160493758e+00 6.675421489197531422e+00 6.666754436728394850e+00 6.684283854166666927e+00 6.717399209104939040e+00 6.780181809413580396e+00 6.842414641203704129e+00 6.931222029320987410e+00 7.159239004629629477e+00 7.230196759259259309e+00 7.308918306327160330e+00 7.366853298611111711e+00 7.308375289351852544e+00 7.164659047067901021e+00 7.017495659722222001e+00 6.880569540895061564e+00 6.765206886574073764e+00 6.650805362654320874e+00 6.571468942901234733e+00 6.525846354166666252e+00 6.497809606481481204e+00 6.463806423611110574e+00 6.441278452932099441e+00 6.437357735339506171e+00 6.467116126543209553e+00 6.516566358024690864e+00 6.580931230709876623e+00 6.669079861111111285e+00 6.771482928240740939e+00 6.875150945216049969e+00 6.991533564814814916e+00 7.120099344135802255e+00 7.215597511574073586e+00 7.196682581018518654e+00 7.074347029320986913e+00 6.924657600308641747e+00 6.797540991512345698e+00 6.691953607253085856e+00 6.599158950617283637e+00 6.426436631944444144e+00 6.433815586419752819e+00 6.417372202932098979e+00 6.401966628086420030e+00 6.400173611111110716e+00 6.413432677469136145e+00 6.458085937499999929e+00 6.528362268518518974e+00 6.616111593364197851e+00 6.699861111111111711e+00 6.793209394290124159e+00 6.883332851080247394e+00 6.988615933641975531e+00 7.081321855709876267e+00 7.083088831018518050e+00 6.958568672839506419e+00 6.807762345679011950e+00 6.673868152006172672e+00 6.552538580246913824e+00 6.451421199845679411e+00 6.371018036265431839e+00 6.323866222993827613e+00 6.294126157407407440e+00 6.267254050925926023e+00 6.256902488425925668e+00 6.255172164351852082e+00 6.274723186728394353e+00 6.325861786265432052e+00 6.388692611882715866e+00 6.469883294753086211e+00 6.554925733024691503e+00 6.818215181327160757e+00 6.886655092592592453e+00 6.989223572530864459e+00 7.088263888888889142e+00 7.124202353395061138e+00 7.025233410493827435e+00 6.729419849537037202e+00 6.613464023919753743e+00 6.502443094135801793e+00 6.400570987654321087e+00 6.333970389660493971e+00 6.298065200617283921e+00 6.281658950617283743e+00 6.262270447530864814e+00 6.258563368055555465e+00 6.276710069444444429e+00 6.323357928240740833e+00 6.386467013888888822e+00 6.472614293981481026e+00 6.585663097993826653e+00 6.699572723765432336e+00 6.824507619598765729e+00 6.966057098765431554e+00 7.105836709104938365e+00 7.248803530092592595e+00 7.290858892746913789e+00 7.208156346450617313e+00 7.055439332561728172e+00 6.908247974537037095e+00 6.775713252314814916e+00 6.506181037808642209e+00 6.465845389660493936e+00 6.415379533179012661e+00 6.401147762345678949e+00 6.392977912808642138e+00 6.378651620370370701e+00 6.376489197530864850e+00 6.399309895833333428e+00 6.441502700617284027e+00 6.503312114197530747e+00 6.588203607253086957e+00 6.693174672067901732e+00 6.806475212191357649e+00 6.941084587191357791e+00 7.068765432098765622e+00 7.203966049382716008e+00 7.354462770061728882e+00 7.447310474537037095e+00 7.408086419753086460e+00 7.266233121141975282e+00 7.125209780092592204e+00 6.998116801697530143e+00 6.893655960648148451e+00 6.802904610339505886e+00 6.750100790895062097e+00 6.711514756944445104e+00 6.684591049382715866e+00 6.650391589506172707e+00 6.620503954475308817e+00 6.617929687500000213e+00 6.649319540895062275e+00 6.754848090277777217e+00 6.816198398919753210e+00 6.873833429783950066e+00 6.969079378858024754e+00 7.069381269290123448e+00 7.203153935185184764e+00 7.308700327932098340e+00 7.302460937499999361e+00 7.190706983024691468e+00 7.035133584104938720e+00 6.899602141203703631e+00 6.796522955246913966e+00 6.705557484567902016e+00 6.643873456790123200e+00 6.614262152777777182e+00 6.598640046296296191e+00 6.574596354166666323e+00 6.562177854938271437e+00 6.554660976080247003e+00 6.579016685956790234e+00 6.633987268518518832e+00 6.705733024691357791e+00 6.791161747685184658e+00 6.895594618055555181e+00 7.008564332561728172e+00 7.129393325617284560e+00 7.260647183641975921e+00 7.296975308641975744e+00 7.184700520833333215e+00 7.003793885030864530e+00 6.825495273919752748e+00 6.480102719907407938e+00 6.427310956790123875e+00 6.343237364969135150e+00 6.300733024691358430e+00 6.269407310956790269e+00 6.225808738425926414e+00 6.217579089506172885e+00 6.218371431327160082e+00 6.258679591049382651e+00 6.313045910493826796e+00 6.389124228395061778e+00 6.478535397376543159e+00 6.568846932870370914e+00 6.688351658950616674e+00 6.812021122685185226e+00 6.930136477623456415e+00 6.961651716820987268e+00 6.849699556327160543e+00 6.674474826388888893e+00 6.495699749228394992e+00 6.346460744598765302e+00 6.219467110339506277e+00 6.099754533179011950e+00 6.022884837962962479e+00 5.980871913580246613e+00 5.939816261574073941e+00 5.913994502314814383e+00 5.900541570216049969e+00 5.907215952932098446e+00 5.936620370370370381e+00 6.059184992283950244e+00 6.101283757716049472e+00 6.169128568672840096e+00 6.261411072530863819e+00 6.355487075617284098e+00 6.471238425925926130e+00 6.585222318672839137e+00 6.702635030864198207e+00 6.744669174382716292e+00 6.654055748456789487e+00 6.484061535493826689e+00 6.316423611111111391e+00 6.187747878086420350e+00 6.065345293209876587e+00 5.964706307870370594e+00 5.903092689043210051e+00 5.864194637345679695e+00 5.838625578703703134e+00 5.802946084104938507e+00 5.783831018518518441e+00 5.788778935185185937e+00 5.817381847993827293e+00 5.864050925925925917e+00 5.931561535493827364e+00 6.006863425925926592e+00 6.091102430555555891e+00 6.194723668981481524e+00 6.312492766203703809e+00 6.430247395833333712e+00 6.469425636574074545e+00 6.360508294753086211e+00 6.036197434413580254e+00 5.958928915895062239e+00 5.855795235339505744e+00 5.763436535493827506e+00 5.689899209104938294e+00 5.645043885030864850e+00 5.620470196759259629e+00 5.593078703703703525e+00 5.566143422067900914e+00 5.549983121141974785e+00 5.570926890432098766e+00 5.605389178240741010e+00 5.660345293209876338e+00 5.746050829475308319e+00 5.825446566358023937e+00 5.923668499228394779e+00 6.027155671296296369e+00 6.143965567129630045e+00 6.256491608796296511e+00 6.360866126543209376e+00 6.348072434413579934e+00 6.204873649691357684e+00 6.029469521604938542e+00 5.876585648148147989e+00 5.748297646604937583e+00 5.615487557870370239e+00 5.505566165123457090e+00 5.437660108024691574e+00 5.394054783950616994e+00 5.362367380401233952e+00 5.337904610339506029e+00 5.273087384259259380e+00 5.298847415123456805e+00 5.342141203703703489e+00 5.396178144290122880e+00 5.556484375000000142e+00 5.665297067901234662e+00 5.764709201388889426e+00 5.890278742283950209e+00 6.011991222993827044e+00 6.123364679783950493e+00 6.150373263888888609e+00 6.043680073302469147e+00 5.881161265432098162e+00 5.722335069444444144e+00 5.603926022376542804e+00 5.486572145061727745e+00 5.378748553240740193e+00 5.313856095679012626e+00 5.281461709104938507e+00 5.257581500771604688e+00 5.241106288580247075e+00 5.224953221450617136e+00 5.242656732253086815e+00 5.285550733024691361e+00 5.346926118827160401e+00 5.420439332561728385e+00 5.512732445987653662e+00 5.621383101851852082e+00 5.728538773148147634e+00 5.842460937500000284e+00 6.133335262345679162e+00 6.209778645833333499e+00 6.265664062499999964e+00 6.223789062499999858e+00 6.078950135030863677e+00 5.919049961419752925e+00 5.784989872685184942e+00 5.689460841049382545e+00 5.603848861882715582e+00 5.548564814814814561e+00 5.531798321759259451e+00 5.515157696759259487e+00 5.506164158950617171e+00 5.500861304012345521e+00 5.515684799382716719e+00 5.558423996913580467e+00 5.618828607253086638e+00 5.685913387345678416e+00 5.778710937499999645e+00 5.887052469135801935e+00 5.987552083333333108e+00 6.087447916666667069e+00 6.202799961419753316e+00 6.312879050925926272e+00 6.325794753086420030e+00 6.201352237654321087e+00 6.012795138888889390e+00 5.831345486111111143e+00 5.689315682870370594e+00 5.577179783950617420e+00 5.477406925154320483e+00 5.321194540895062275e+00 5.308445216049382687e+00 5.292647087191357791e+00 5.270758584104937583e+00 5.258755304783950812e+00 5.271895736882716399e+00 5.307499035493826511e+00 5.370000000000000107e+00 5.451044077932099441e+00 5.534879918981482128e+00 5.627042341820987836e+00 5.738567226080246719e+00 5.854855806327161183e+00 5.982373649691358430e+00 6.076430844907407369e+00 6.084662905092592666e+00 5.964391396604938222e+00 5.811405767746912865e+00 5.676558641975308461e+00 5.567032214506173027e+00 5.469019097222221681e+00 5.386864872685184658e+00 5.341944444444444606e+00 5.320692515432098979e+00 5.308550829475308319e+00 5.308535397376543230e+00 5.316111111111110787e+00 5.359188368055555429e+00 5.417275752314814063e+00 5.501689814814814561e+00 5.598154899691357933e+00 5.837110821759258883e+00 5.884099151234567948e+00 5.968902874228394495e+00 6.174934413580246861e+00 6.304898726851851265e+00 6.388920235339506704e+00 6.322593557098765693e+00 6.182315297067901838e+00 6.036584683641975424e+00 5.929007040895061920e+00 5.832105034722221859e+00 5.764450231481481168e+00 5.730325038580247110e+00 5.707163869598765871e+00 5.710858892746913718e+00 5.717099247685185404e+00 5.724791184413580147e+00 5.755224729938271722e+00 5.809286747685185937e+00 5.878877797067900701e+00 5.965497685185185084e+00 6.076149691358025073e+00 6.191121238425925988e+00 6.329099633487653698e+00 6.447300829475309136e+00 6.578484278549382225e+00 6.718743248456790162e+00 6.758962673611111249e+00 6.661100983796296227e+00 6.518618827160493900e+00 6.238981481481482128e+00 6.216061921296296866e+00 6.164440104166666323e+00 6.135943287037036953e+00 6.132896412037037059e+00 6.133248939043210335e+00 6.124011381172839386e+00 6.125957754629629548e+00 6.138810281635802113e+00 6.178560956790123626e+00 6.226342110339506242e+00 6.305433545524691041e+00 6.391042631172838995e+00 6.495363136574074048e+00 6.606738040123456557e+00 6.738885513117283566e+00 6.868724440586420066e+00 6.930439814814814525e+00 6.854654224537036988e+00 6.696916956018518441e+00 6.529144965277778212e+00 6.395543981481481843e+00 6.296790123456790234e+00 6.226420717592592524e+00 6.181026234567901234e+00 6.159893904320987268e+00 6.145438368055555323e+00 6.146839795524691397e+00 6.136920814043209660e+00 6.157748842592591920e+00 6.204107349537037130e+00 6.360563753858024860e+00 6.419913194444444748e+00 6.492305652006173489e+00 6.591631944444444002e+00 6.719512442129629726e+00 6.855123939043210157e+00 6.996702353395061635e+00 7.060054976851851904e+00 6.970532407407407760e+00 6.792623939043210157e+00 6.600426793981481133e+00 6.439894868827160224e+00 6.301943962191357329e+00 6.187776813271605114e+00 6.095891203703703631e+00 6.055529996141975069e+00 6.026612654320987694e+00 5.998779899691358608e+00 5.982584394290123342e+00 5.988417245370370345e+00 6.022220775462963083e+00 6.080614872685185190e+00 6.158237847222222783e+00 6.249170042438271899e+00 6.352065972222222356e+00 6.471737075617284063e+00 6.605122974537036562e+00 6.749443479938271651e+00 6.889090952932098944e+00 6.931109182098765586e+00 6.824052372685184942e+00 6.502753665123456095e+00 6.415751832561728207e+00 6.312978877314814774e+00 6.145880594135802788e+00 6.099773341049382402e+00 6.083642939814815520e+00 6.076188753858025038e+00 6.067658661265431519e+00 6.073371913580246861e+00 6.093783757716049188e+00 6.136499807098765302e+00 6.195403163580246897e+00 6.281807966820987410e+00 6.387028838734567948e+00 6.498249421296296013e+00 6.619723668981481346e+00 6.745965470679013087e+00 6.902664930555555856e+00 7.025991512345679091e+00 7.031726948302469360e+00 6.907182677469135612e+00 6.756276041666666288e+00 6.620176022376543123e+00 6.525162519290123697e+00 6.451314621913580183e+00 6.401973861882716221e+00 6.383685860339506135e+00 6.364752604166667105e+00 6.349798900462962692e+00 6.331745273919753281e+00 6.328391685956789914e+00 6.370346257716049010e+00 6.411719714506172174e+00 6.470612943672839457e+00 6.559733796296296049e+00 6.661330536265432478e+00 6.765277295524691148e+00 6.887554494598765231e+00 7.004083719135802077e+00 7.020209780092592666e+00 6.898538290895062097e+00 6.732703510802469538e+00 6.588080632716049934e+00 6.475335648148147882e+00 6.378812210648147740e+00 6.321798804012345840e+00 6.303240258487654124e+00 6.289648919753086709e+00 6.255036168981480849e+00 6.243771219135802575e+00 6.240671296296296688e+00 6.257463348765432087e+00 6.308926504629629228e+00 6.367398244598764911e+00 6.452591145833332931e+00 6.558103298611110965e+00 6.656408179012346160e+00 6.770141782407407938e+00 6.890677565586420528e+00 6.928089313271605043e+00 6.829448784722222499e+00 6.499639274691357826e+00 6.406735628858024612e+00 6.295775462962962976e+00 6.192340856481481026e+00 6.102122878086420066e+00 6.042624903549382864e+00 6.015880594135802895e+00 5.978131751543210193e+00 5.951150173611111427e+00 5.928593267746912865e+00 5.936712480709876338e+00 5.968108603395061884e+00 6.009252025462963331e+00 6.083888888888889568e+00 6.164164255401234804e+00 6.263265817901234378e+00 6.372007137345679695e+00 6.498385898919753600e+00 6.609660976080246719e+00 6.631604456018518334e+00 6.520635609567900559e+00 6.342237654320987517e+00 6.170483217592592773e+00 6.023422550154321264e+00 5.897833236882716434e+00 5.783245081018518974e+00 5.698220003858025073e+00 5.660049672067901660e+00 5.626820987654320483e+00 5.586065297067900559e+00 5.572721836419752606e+00 5.544457947530864850e+00 5.575954861111110716e+00 5.703778452932098730e+00 5.795783661265431874e+00 5.905958719135802504e+00 6.005774980709876587e+00 6.126888985339506100e+00 6.255067033179012803e+00 6.369987943672839492e+00 6.371981577932098517e+00 6.249181616512346160e+00 6.085576774691357826e+00 5.959085648148148451e+00 5.845441261574074510e+00 5.750644290123456237e+00 5.660290316358024931e+00 5.609099633487654835e+00 5.579130979938271118e+00 5.557086709104938294e+00 5.537454185956789843e+00 5.532789351851851833e+00 5.549008487654321087e+00 5.588227719907407298e+00 5.650703124999999716e+00 5.725674189814814241e+00 5.810224247685185084e+00 5.915317804783950528e+00 6.019387056327160757e+00 6.132599826388888786e+00 6.270444155092592453e+00 6.488964120370370736e+00 6.416042631172839350e+00 6.237133487654321407e+00 6.080069926697531102e+00 5.952058256172839457e+00 5.847622974537037166e+00 5.764904031635802895e+00 5.714975405092592275e+00 5.684549575617284134e+00 5.666326195987654302e+00 5.644532696759259061e+00 5.631500289351851762e+00 5.633064718364197532e+00 5.666437596450617953e+00 5.718858024691358288e+00 5.791058063271605327e+00 5.874930555555555323e+00 5.971330054012345734e+00 6.062309992283950066e+00 6.175786072530863535e+00 6.287909915123456095e+00 6.312407407407406801e+00 6.194133391203703987e+00 6.033071952160494078e+00 5.873871045524691858e+00 5.748471257716048832e+00 5.641886091820987659e+00 5.575507330246913362e+00 5.535815007716049507e+00 5.502399209104938294e+00 5.472459972993827471e+00 5.379604552469135825e+00 5.375228105709876303e+00 5.385660204475308355e+00 5.423515625000000284e+00 5.484848572530863997e+00 5.547851080246913646e+00 5.632682773919753139e+00 5.732851562500000497e+00 5.839291570216048832e+00 5.964623842592592595e+00 6.088254726080247536e+00 6.151259162808641712e+00 6.070806809413580751e+00 5.912371238425925490e+00 5.749034047067901554e+00 5.604361979166666785e+00 5.502140721450617278e+00
2.543485243055555678e+00 2.541195505401234289e+00 2.400835744598765586e+00 1.761553337191358093e+00 1.430661168981481435e+00 1.417836130401234573e+00 1.446967110339506091e+00 1.492331211419753112e+00 1.546196952160493909e+00 1.579616126543209820e+00 1.568917341820987632e+00 1.518931809413580192e+00 1.452489390432098793e+00 1.423238329475308594e+00 1.403169367283950697e+00 1.401313657407407431e+00 1.334852912808642156e+00 1.288450520833333224e+00 1.266658468364197487e+00 1.235449942129629664e+00 1.206189236111111063e+00 1.161608796296296209e+00 1.132332658179012297e+00 1.105525173611111134e+00 1.112104070216049401e+00 1.155273437500000000e+00 1.220187114197530898e+00 1.263199266975308488e+00 1.302593074845679100e+00 1.333478973765432007e+00 1.283512731481481373e+00 1.394289641203703800e+00 1.382853491512345601e+00 1.260524691358024585e+00 1.267404513888888973e+00 1.411961323302469040e+00 1.449387538580247048e+00 1.500651523919753094e+00 1.531506558641975380e+00 1.546323302469135852e+00 1.559612750771604883e+00 1.559598283179012279e+00 1.568423514660493900e+00 1.587155671296296200e+00 1.607452256944444491e+00 1.625890721450617304e+00 1.663187210648148229e+00 1.676013695987654373e+00 1.687053915895061706e+00 1.689633487654320865e+00 1.683956886574074163e+00 1.616095196759259167e+00 1.522478298611111169e+00 1.443184317129629468e+00 1.388383005401234715e+00 1.344107349537037033e+00 1.327949459876543337e+00 1.312242959104938267e+00 1.314052372685185155e+00 1.313120659722222028e+00 1.320643807870370390e+00 1.321287615740740717e+00 1.605904706790123537e+00 1.576845100308642111e+00 1.537458526234567913e+00 1.535297550154320900e+00 1.537803337191357977e+00 1.553148630401234520e+00 1.570353973765432176e+00 1.589897280092592569e+00 1.577411265432098864e+00 1.507315779320987703e+00 1.419613715277777688e+00 1.359710165895061884e+00 1.315936535493827275e+00 1.294394290123456859e+00 1.279862075617284045e+00 1.286969521604938160e+00 1.300013020833333144e+00 1.305224247685185190e+00 1.312272858796296404e+00 1.321929976851851984e+00 1.347578125000000071e+00 1.375288869598765285e+00 1.410229552469135728e+00 1.454050443672839421e+00 1.498160204475308621e+00 1.545361207561728456e+00 1.569386574074074003e+00 1.553423032407407423e+00 1.467721836419753068e+00 1.370085358796296449e+00 1.297620563271605132e+00 1.460219425154321016e+00 1.416992187500000000e+00 1.373813175154320998e+00 1.372475887345679046e+00 1.374283371913580076e+00 1.375861304012345743e+00 1.375784143518518521e+00 1.386683545524691308e+00 1.408095100308642156e+00 1.436002604166666696e+00 1.467477334104938302e+00 1.498806423611111160e+00 1.534546199845678860e+00 1.564563078703703702e+00 1.589794560185185279e+00 1.595951967592592613e+00 1.555592206790123555e+00 1.471863908179012359e+00 1.396981577932098872e+00 1.328522376543209704e+00 1.294077932098765427e+00 1.260784625771604883e+00 1.252988040123456992e+00 1.257196180555555376e+00 1.269746817129629557e+00 1.278595679012345832e+00 1.296365740740740735e+00 1.308095582561728421e+00 1.335739293981481612e+00 1.368418209876543168e+00 1.406317033179012244e+00 1.390248360339506162e+00 1.401423128858024780e+00 1.433556616512345672e+00 1.469019579475308701e+00 1.505913387345679144e+00 1.531343074845679109e+00 1.520619695216049339e+00 1.471156925154321060e+00 1.396312692901234609e+00 1.337944155092592569e+00 1.297015817901234547e+00 1.263431230709876507e+00 1.240028935185185199e+00 1.237528452932098677e+00 1.244819155092592444e+00 1.260212191358024647e+00 1.257190875771605043e+00 1.271354648919753139e+00 1.298863811728395046e+00 1.334507137345678940e+00 1.385388213734568108e+00 1.432765239197530960e+00 1.484527874228394939e+00 1.522561246141975300e+00 1.548400366512345583e+00 1.562961516203703605e+00 1.576005979938271739e+00 1.580726273148148175e+00 1.585668885030864228e+00 1.579779128086419737e+00 1.535921585648148069e+00 1.430080536265432078e+00 1.388003472222222312e+00 1.341578896604938231e+00 1.313350694444444411e+00 1.292240065586419684e+00 1.289738136574074101e+00 1.301844135802469049e+00 1.309061053240740735e+00 1.320189043209876401e+00 1.336882233796296449e+00 1.366691743827160632e+00 1.413199266975308621e+00 1.450606674382715955e+00 1.496492573302469209e+00 1.531364776234567904e+00 1.559451678240740824e+00 1.587498070987654275e+00 1.597657696759259283e+00 1.596161747685185039e+00 1.605454764660493971e+00 1.593634259259259167e+00 1.576186824845679180e+00 1.519558738425925926e+00 1.459890046296296484e+00 1.413267746913580147e+00 1.378400848765432007e+00 1.346508969907407316e+00 1.339714988425926068e+00 1.341046006944444535e+00 1.363167438271604803e+00 1.372894483024691192e+00 1.445103202160493927e+00 1.442587287808641872e+00 1.442741126543209740e+00 1.476080246913580307e+00 1.523888888888888848e+00 1.562502411265432212e+00 1.592320119598765515e+00 1.608024691358024727e+00 1.612650945216049347e+00 1.598051697530864068e+00 1.608985339506172840e+00 1.598265335648148211e+00 1.549471932870370328e+00 1.488018904320987712e+00 1.436024787808642067e+00 1.406646412037036997e+00 1.382123360339506224e+00 1.364682195216049276e+00 1.370942804783950697e+00 1.388524787808641969e+00 1.397164834104938302e+00 1.396742380401234440e+00 1.414739583333333384e+00 1.446327642746913611e+00 1.481954089506172911e+00 1.525091145833333384e+00 1.565104166666666741e+00 1.590940875771604812e+00 1.620085358796296449e+00 1.648886477623456859e+00 1.660411844135802450e+00 1.546958912037037059e+00 1.548704185956790047e+00 1.502230902777777821e+00 1.418954475308642049e+00 1.351732253086419755e+00 1.308787615740740762e+00 1.288869598765432167e+00 1.272097800925925837e+00 1.286938175154320962e+00 1.303982928240740691e+00 1.313830054012345760e+00 1.324035011574074217e+00 1.351591435185185208e+00 1.378986786265432141e+00 1.420205922067901305e+00 1.472821180555555554e+00 1.521706693672839616e+00 1.572779224537037113e+00 1.614897762345679055e+00 1.644423225308642156e+00 1.653510320216049267e+00 1.663895158179012457e+00 1.669291087962962772e+00 1.644778163580246977e+00 1.566475212191357880e+00 1.482498070987654293e+00 1.418763985339505984e+00 1.369904513888889008e+00 1.338761574074073923e+00 1.329277102623456663e+00 1.508948206018518423e+00 1.489551504629629708e+00 1.469304591049382713e+00 1.474191261574074208e+00 1.494884259259259274e+00 1.518019386574074092e+00 1.557736786265432105e+00 1.592123842592592764e+00 1.617784529320987597e+00 1.639580439814814827e+00 1.643551311728395081e+00 1.656375868055555589e+00 1.650841531635802495e+00 1.652899787808641996e+00 1.653408082561728332e+00 1.638372878086419737e+00 1.575673225308642067e+00 1.503550347222222028e+00 1.443911072530864148e+00 1.401293402777777697e+00 1.373312114197530853e+00 1.363519965277777857e+00 1.367678915895061520e+00 1.379047550154320900e+00 1.388705632716049410e+00 1.406678722993827124e+00 1.426062403549382740e+00 1.461059027777777741e+00 1.506449652777777759e+00 1.553886959876543239e+00 1.600748939043209917e+00 1.576827256944444589e+00 1.589784915123456877e+00 1.613560474537037104e+00 1.643732638888888875e+00 1.665660686728394957e+00 1.618947241512345592e+00 1.539686053240740815e+00 1.467657696759259167e+00 1.410965470679012457e+00 1.391009355709876605e+00 1.375851176697530764e+00 1.376787712191358093e+00 1.387894965277777892e+00 1.407621527777777715e+00 1.414696180555555571e+00 1.426270736882715884e+00 1.448805941358024540e+00 1.484583333333333144e+00 1.520465374228395117e+00 1.577969232253086496e+00 1.624894868827160499e+00 1.668488136574074021e+00 1.710898919753086389e+00 1.729673032407407440e+00 1.729113136574074172e+00 1.663233024691358031e+00 1.554917052469135808e+00 1.452835165895061564e+00 1.380796199845679029e+00 1.340672260802469040e+00 1.314364390432098739e+00 1.529084683641975140e+00 1.508040123456790171e+00 1.490221836419753032e+00 1.471169945987654160e+00 1.481762635030864139e+00 1.492201003086419675e+00 1.557218364197530791e+00 1.596413966049382793e+00 1.635209780092592657e+00 1.670743634259259203e+00 1.682765239197530960e+00 1.705861786265432167e+00 1.708432195216049276e+00 1.667579089506172840e+00 1.553873939043209917e+00 1.457655285493827169e+00 1.379456983024691441e+00 1.331507523148148131e+00 1.297649980709876472e+00 1.288632812499999947e+00 1.289104456018518530e+00 1.301518132716049436e+00 1.306307388117283752e+00 1.315274884259259203e+00 1.325650077160493767e+00 1.365031828703703765e+00 1.400007716049382900e+00 1.457249228395061769e+00 1.500190489969135843e+00 1.558276427469135861e+00 1.547796103395061795e+00 1.566871624228395099e+00 1.586764081790123404e+00 1.598424479166666856e+00 1.553282214506172876e+00 1.462000868055555625e+00 1.380979938271604812e+00 1.328673804012345583e+00 1.300757619598765569e+00 1.269649402006172823e+00 1.273209394290123475e+00 1.281641107253086442e+00 1.296568287037036971e+00 1.307518807870370336e+00 1.317601755401234476e+00 1.341435667438271695e+00 1.382631655092592560e+00 1.429465181327160384e+00 1.477774402006172716e+00 1.536238425925926077e+00 1.585200617283950564e+00 1.622785976080246773e+00 1.652649498456790100e+00 1.667329282407407520e+00 1.673549382716049472e+00 1.629989872685185137e+00 1.540741222993827320e+00 1.439197530864197550e+00 1.376369116512345725e+00 1.335257040895061698e+00 1.305392071759259309e+00 1.475800057870370496e+00 1.455760030864197585e+00 1.439617091049382624e+00 1.432537133487654213e+00 1.442372202932098668e+00 1.461827256944444375e+00 1.507373649691358120e+00 1.540389660493827195e+00 1.575480324074074012e+00 1.605188078703703836e+00 1.633449074074074137e+00 1.645339023919752952e+00 1.646598668981481328e+00 1.663295717592592649e+00 1.641858603395061733e+00 1.541891396604938347e+00 1.440371334876543008e+00 1.364792631172839332e+00 1.319868827160493696e+00 1.295673225308642040e+00 1.286306905864197603e+00 1.284815297067901207e+00 1.294847608024691343e+00 1.301258680555555491e+00 1.316725501543209775e+00 1.339076485339506073e+00 1.368940489969135976e+00 1.411922260802469076e+00 1.465859374999999964e+00 1.519037422839506268e+00 1.569405864197530809e+00 1.514915605709876489e+00 1.540709394290123324e+00 1.568604359567901341e+00 1.597408371913580316e+00 1.606235050154320998e+00 1.532029320987654319e+00 1.348467881944444446e+00 1.309272280092592444e+00 1.278746624228394912e+00 1.261529224537036864e+00 1.269769965277777857e+00 1.277027874228395143e+00 1.293954957561728403e+00 1.309407310956790083e+00 1.333675250771604981e+00 1.365086323302469040e+00 1.406755401234567993e+00 1.453558063271604972e+00 1.510487557870370257e+00 1.568102816358024620e+00 1.606934317129629752e+00 1.631062885802469165e+00 1.648664641203703596e+00 1.651429398148148264e+00 1.652166280864197478e+00 1.640860339506172716e+00 1.574419367283950599e+00 1.466338734567901092e+00 1.391618923611111169e+00 1.340937500000000115e+00 1.480168306327160455e+00 1.442667341820987659e+00 1.407073688271605061e+00 1.399862557870370283e+00 1.410506365740740620e+00 1.413788097993827320e+00 1.426892843364197416e+00 1.450495273919753192e+00 1.477941743827160481e+00 1.526121238425925952e+00 1.568092689043209864e+00 1.606797357253086256e+00 1.633130787037037068e+00 1.651638695987654337e+00 1.652066936728395108e+00 1.641939621913580227e+00 1.642596450617283876e+00 1.635191936728394912e+00 1.584769000771605096e+00 1.486510898919753076e+00 1.400212191358024771e+00 1.351182484567901243e+00 1.317775848765432078e+00 1.295213638117284072e+00 1.296395640432098872e+00 1.305923514660493945e+00 1.316233603395061680e+00 1.323190104166666492e+00 1.332325906635802415e+00 1.344318094135802388e+00 1.382015817901234511e+00 1.499538966049382749e+00 1.511192129629629788e+00 1.526271219135802548e+00 1.557722318672839501e+00 1.595198688271604937e+00 1.626250482253086327e+00 1.644952739197530933e+00 1.613659818672839474e+00 1.529740547839506304e+00 1.430134548611111001e+00 1.362515432098765356e+00 1.320892650462963003e+00 1.297785011574073888e+00 1.293001060956790127e+00 1.301090856481481373e+00 1.319546199845679002e+00 1.323280285493827035e+00 1.332658661265432087e+00 1.346669560185185244e+00 1.380122492283950564e+00 1.430134066358024647e+00 1.479434317129629584e+00 1.532634066358024683e+00 1.590142746913580263e+00 1.631105806327160623e+00 1.652668306327160552e+00 1.673892746913580254e+00 1.660928337191358128e+00 1.576274594907407511e+00 1.447735821759259300e+00 1.357275752314814676e+00 1.494120370370370487e+00 1.448206018518518601e+00 1.394279996141975175e+00 1.368487172067901270e+00 1.367719907407407343e+00 1.370792824074074101e+00 1.381232638888888919e+00 1.394032118055555491e+00 1.432698688271604848e+00 1.475986207561728492e+00 1.524903067129629752e+00 1.567665412808642023e+00 1.602251157407407423e+00 1.633945794753086433e+00 1.647640817901234511e+00 1.649569830246913504e+00 1.634281925154321025e+00 1.546728877314814676e+00 1.429073109567901234e+00 1.346992669753086291e+00 1.299941165123456699e+00 1.272514949845679144e+00 1.257950906635802557e+00 1.249062499999999964e+00 1.264258777006172840e+00 1.271758777006172680e+00 1.278109567901234644e+00 1.291863908179012421e+00 1.316464120370370416e+00 1.358437017746913611e+00 1.444073591820987712e+00 1.451968074845679135e+00 1.475887827932098828e+00 1.513050250771605043e+00 1.557640335648148300e+00 1.582261284722222161e+00 1.605135513117283752e+00 1.603537808641975371e+00 1.596105806327160481e+00 1.526099054783950582e+00 1.413203607253086469e+00 1.330356385030864175e+00 1.283189621913580325e+00 1.260475501543209864e+00 1.245481770833333224e+00 1.245126832561728403e+00 1.257106963734567984e+00 1.267798514660493980e+00 1.274259259259259203e+00 1.287866994598765524e+00 1.307665412808642014e+00 1.339588638117283903e+00 1.387124807098765400e+00 1.441074942129629610e+00 1.485111882716049436e+00 1.527832754629629752e+00 1.571351755401234396e+00 1.598961709104938400e+00 1.616964216820987676e+00 1.610281635802469191e+00 1.526898148148148060e+00 1.451715856481481604e+00 1.395873360339506153e+00 1.331331983024691468e+00 1.304588155864197407e+00 1.279132908950617376e+00 1.277879533179012483e+00 1.287913290895061680e+00 1.292081404320987614e+00 1.296968074845679109e+00 1.302982735339506259e+00 1.328885995370370443e+00 1.366996045524691228e+00 1.411698495370370399e+00 1.470931230709876525e+00 1.507465760030864299e+00 1.549449266975308603e+00 1.591230227623456672e+00 1.604466145833333357e+00 1.610917245370370399e+00 1.604446855709876552e+00 1.566840760030864255e+00 1.466752989969135612e+00 1.365693962191357969e+00 1.295396412037037148e+00 1.251527295524691441e+00 1.220771122685185173e+00 1.208871527777777732e+00 1.214933931327160543e+00 1.225115258487654124e+00 1.233345389660493785e+00 1.248141396604938391e+00 1.386069637345678895e+00 1.382442129629629646e+00 1.404078414351851878e+00 1.445530960648148122e+00 1.505664062499999956e+00 1.535426311728395055e+00 1.554449266975308719e+00 1.558936631944444429e+00 1.567485050154320936e+00 1.563450520833333357e+00 1.545910976080246968e+00 1.462594521604938302e+00 1.354534625771604883e+00 1.278225308641975255e+00 1.235662133487654302e+00 1.218327546296296360e+00 1.203818479938271624e+00 1.215079089506172716e+00 1.229822530864197461e+00 1.249979263117283912e+00 1.266630979938271784e+00 1.281677758487654417e+00 1.317982253086419808e+00 1.358422067901234431e+00 1.406459297839506073e+00 1.454139660493827035e+00 1.495059317129629584e+00 1.532547260802469280e+00 1.567477816358024745e+00 1.583613522376543292e+00 1.448711902006172725e+00 1.475795717592592649e+00 1.485562307098765356e+00 1.445518904320987508e+00 1.365459104938271606e+00 1.289982638888888866e+00 1.254408275462962852e+00 1.232315779320987792e+00 1.225443190586419817e+00 1.232809606481481524e+00 1.248623167438271508e+00 1.266465084876543301e+00 1.278835841049382749e+00 1.296088445216049267e+00 1.317923900462962816e+00 1.361296296296296449e+00 1.409362943672839652e+00 1.457058738425925926e+00 1.515420524691358128e+00 1.550337577160493696e+00 1.578335744598765356e+00 1.595555555555555616e+00 1.604936824845679011e+00 1.613612557870370390e+00 1.600951003086419799e+00 1.505597993827160419e+00 1.385049672067901305e+00 1.295622106481481461e+00 1.251601562499999876e+00 1.227843846450617171e+00 1.218640528549382651e+00 1.394563560956790127e+00 1.365163966049382616e+00 1.360464409722222268e+00 1.358421103395061724e+00 1.364293499228395046e+00 1.387324459876543292e+00 1.420674672067901323e+00 1.459905478395061795e+00 1.490055459104938196e+00 1.529237075617283947e+00 1.548550347222222179e+00 1.560570023148148300e+00 1.566094714506172769e+00 1.573580729166666581e+00 1.564616126543209917e+00 1.539297357253086584e+00 1.456136188271604848e+00 1.353302469135802433e+00 1.288915412808641969e+00 1.254639756944444295e+00 1.233437499999999964e+00 1.219415027006172769e+00 1.225931712962962772e+00 1.240305266203703516e+00 1.251358989197530969e+00 1.279773341049382784e+00 1.304447337962962861e+00 1.349355227623456832e+00 1.396894290123456672e+00 1.453631847993827275e+00 1.507691454475308612e+00 1.438425925925925997e+00 1.460463445216049427e+00 1.482836130401234520e+00 1.556052758487654453e+00 1.584361014660493838e+00 1.586762635030864343e+00 1.530747492283950573e+00 1.431818094135802522e+00 1.360501543209876596e+00 1.312050540123456788e+00 1.288034336419753068e+00 1.273396026234567824e+00 1.270095486111111116e+00 1.286206597222222303e+00 1.304204282407407600e+00 1.329072145061728216e+00 1.354780574845678931e+00 1.390518422067901216e+00 1.435441743827160499e+00 1.481603491512345716e+00 1.526970003858024727e+00 1.568613040123456814e+00 1.602368827160493892e+00 1.620862750771605132e+00 1.632087673611110956e+00 1.630041956018518423e+00 1.619816743827160455e+00 1.604041763117284081e+00 1.525412326388888795e+00 1.426419753086419773e+00 1.468892746913580183e+00 1.438956886574074057e+00 1.402421392746913575e+00 1.389900173611110956e+00 1.397125771604938116e+00 1.412463831018518468e+00 1.425483699845679020e+00 1.430536265432098775e+00 1.448118730709876401e+00 1.479428530092592675e+00 1.513801118827160508e+00 1.552222222222222392e+00 1.593088348765432150e+00 1.621084587191357951e+00 1.639724151234567939e+00 1.641351755401234680e+00 1.640096932870370283e+00 1.626543209876543328e+00 1.563464023919753032e+00 1.455372299382716061e+00 1.370632716049382749e+00 1.315556520061728296e+00 1.292045717592592569e+00 1.280497202932098677e+00 1.286862461419753023e+00 1.300048225308641836e+00 1.316923707561728385e+00 1.338924575617283841e+00 1.350022665895061813e+00 1.385594618055555616e+00 1.427540991512345592e+00 1.468401813271605016e+00 1.485006269290123360e+00 1.507667341820987605e+00 1.543886959876543008e+00 1.581109182098765276e+00 1.606485821759259247e+00 1.626106770833333437e+00 1.620426793981481373e+00 1.547978395061728296e+00 1.420118152006172751e+00 1.332795138888889008e+00 1.291597222222222285e+00 1.256978202160493829e+00 1.250827546296296333e+00 1.245327449845679002e+00 1.261622299382715973e+00 1.282401138117283956e+00 1.296310281635802308e+00 1.309377411265432167e+00 1.332063560956790127e+00 1.360100790895061751e+00 1.407617669753086442e+00 1.463706597222222072e+00 1.519673514660493829e+00 1.571590470679012252e+00 1.610059799382715928e+00 1.632132040895061698e+00 1.634584297839505984e+00 1.641484374999999885e+00 1.637629726080246817e+00 1.561107735339506197e+00 1.486419753086419604e+00 1.426370563271605052e+00 1.366499324845678931e+00 1.312262249228395072e+00 1.310377121913580245e+00 1.323915412808642111e+00 1.338318383487654417e+00 1.353778935185185217e+00 1.364685088734568064e+00 1.398295235339506171e+00 1.436120273919753165e+00 1.473682484567901296e+00 1.525137924382716115e+00 1.576487750771604857e+00 1.605570023148148229e+00 1.628129340277777892e+00 1.643826195987654337e+00 1.641838831018518352e+00 1.632028838734567833e+00 1.609566936728394904e+00 1.515434027777777803e+00 1.424430459104938151e+00 1.363907696759259380e+00 1.337510609567901243e+00 1.312259837962962861e+00 1.318056520061728465e+00 1.330852623456790118e+00 1.345854552469135657e+00 1.351612654320987650e+00 1.354102527006172840e+00 1.465286940586419728e+00 1.468117283950617136e+00 1.481597704475308808e+00 1.521887056327160481e+00 1.556830150462963136e+00 1.599619020061728403e+00 1.618369984567901376e+00 1.620539158950617287e+00 1.631928047839506180e+00 1.607063560956790260e+00 1.515718074845679109e+00 1.408584104938271464e+00 1.347626350308642085e+00 1.308340084876543186e+00 1.287894965277777803e+00 1.289541859567901128e+00 1.311950713734568064e+00 1.319217785493827177e+00 1.323604359567901234e+00 1.332916184413580396e+00 1.347451774691358128e+00 1.371565393518518583e+00 1.416044560185185208e+00 1.465215567129629637e+00 1.517959104938271464e+00 1.569862075617284081e+00 1.599884259259259256e+00 1.631492573302468996e+00 1.647957658179012297e+00 1.641641589506172894e+00 1.563260030864197736e+00 1.481337770061728287e+00 1.409667727623456823e+00 1.349949845679012439e+00 1.311000675154321060e+00 1.287068383487654399e+00 1.275435474537037095e+00 1.289788773148148104e+00 1.298663194444444446e+00 1.302957658179012324e+00 1.308130304783950537e+00 1.330089699074074039e+00 1.361945408950617331e+00 1.406471836419753041e+00 1.452334104938271642e+00 1.504771894290123369e+00 1.553872492283950635e+00 1.590783661265432025e+00 1.611786747685185039e+00 1.625586419753086487e+00 1.617736304012345583e+00 1.528729745370370319e+00 1.405100308641975326e+00 1.323654513888888884e+00 1.264693769290123448e+00 1.231277970679012457e+00 1.219601658950617340e+00 1.222973572530864139e+00 1.233445216049382731e+00 1.240733989197530862e+00 1.244453607253086291e+00 1.262201967592592400e+00 1.412599826388888813e+00 1.408415798611110992e+00 1.478507426697530880e+00 1.514376929012345663e+00 1.543316936728394984e+00 1.563193479938271624e+00 1.575364583333333401e+00 1.575440779320987472e+00 1.580718557098765409e+00 1.558629436728395046e+00 1.462732928240740859e+00 1.362254050925925997e+00 1.304557773919753139e+00 1.261856192129629628e+00 1.241003086419752988e+00 1.231142939814814818e+00 1.246062403549382580e+00 1.252153742283950599e+00 1.270279224537036900e+00 1.275493344907407511e+00 1.299059606481481444e+00 1.325044367283950697e+00 1.362619116512345796e+00 1.413124517746913611e+00 1.467267554012345876e+00 1.512653838734567824e+00 1.558386863425925917e+00 1.582448398919753085e+00 1.597546778549382651e+00 1.600816936728394868e+00 1.484102044753086380e+00 1.427758005401234431e+00 1.327771508487654240e+00 1.258762538580247003e+00 1.234224537037037051e+00 1.228691165123456663e+00 1.229335455246913567e+00 1.244111207561728216e+00 1.262115644290123573e+00 1.278796778549382784e+00 1.285887827932098659e+00 1.299192708333333224e+00 1.314857253086419764e+00 1.349328703703703836e+00 1.388948688271604892e+00 1.446134741512345556e+00 1.489681712962962923e+00 1.531653163580246835e+00 1.558543113425925997e+00 1.587610918209876543e+00 1.595465856481481648e+00 1.580824170524691263e+00 1.494593942901234485e+00 1.383427854938271695e+00 1.304071662808641952e+00 1.253911072530864201e+00 1.223696469907407325e+00 1.220973186728395055e+00 1.225376157407407351e+00 1.230458140432098668e+00 1.231012249228395028e+00 1.403342013888888795e+00 1.391289544753086416e+00 1.397925347222222392e+00 1.422710262345679100e+00 1.462567997685185084e+00 1.498079668209876480e+00 1.522505787037037095e+00 1.556171392746913629e+00 1.567438753858024780e+00 1.579350887345678967e+00 1.575304301697530995e+00 1.564387056327160463e+00 1.500609567901234565e+00 1.399916087962962852e+00 1.315652488425925748e+00 1.265617766203703809e+00 1.242038001543209980e+00
