2.018204981674382736e+02 2.018158743248456801e+02 2.017380632716049433e+02 2.015756770833333462e+02 2.014538020833333576e+02 2.013814462770061766e+02 2.013542602237654364e+02 2.013316415895061766e+02 2.013333564814814736e+02 2.013512842399691465e+02 2.013777854938271616e+02 2.013935599922839685e+02 2.014120978009259204e+02 2.014256577932098651e+02 2.014663773148148209e+02 2.014961617476851643e+02 2.013977358217592553e+02 2.012204128086419814e+02 2.009934977816357957e+02 2.007693137538580288e+02 2.004917698688271628e+02 2.001441116898148209e+02 1.997358641975308728e+02 1.993160696373456631e+02 1.999800718557098662e+02 2.004293668016975403e+02 2.006294126157407334e+02 2.007378896604938348e+02 2.008412876157407538e+02 2.009440760030864226e+02 2.010232074652777783e+02 2.012276027199074235e+02 2.012191521990740739e+02 2.012398731674382759e+02 2.012954846643518465e+02 2.013645476466049331e+02 2.013986120756172795e+02 2.014717182677468941e+02 2.015535440779320879e+02 2.016443369020061596e+02 2.016631076388889028e+02 2.015742346643518488e+02 2.014664023919752935e+02 2.013746976273148164e+02 2.013356105324074008e+02 2.013055242091049593e+02 2.012736699459876490e+02 2.012834100115740910e+02 2.013077570408950407e+02 2.013458116319444571e+02 2.013565943287037214e+02 2.013758318865740762e+02 2.014005762924382736e+02 2.014337880979938404e+02 2.014868928433641884e+02 2.015416661844135717e+02 2.016069092399691272e+02 2.016647154706789991e+02 2.017296937692901224e+02 2.017608752893518442e+02 2.016842317708333212e+02 2.015617365933641736e+02 2.014387480709876570e+02 2.013983125964506371e+02 2.013779793595679166e+02 2.013784669174382600e+02 2.013726258680555645e+02 2.013877927276234345e+02 2.014005618248456813e+02 2.014063527199074031e+02 2.014069135802469077e+02 2.014308656442901224e+02 2.014691169945987781e+02 2.015195625964506121e+02 2.015770539158950498e+02 2.016439134837962968e+02 2.017262451774691385e+02 2.017603915895061846e+02 2.017097820216049229e+02 2.015881071566358003e+02 2.014896826774691476e+02 2.014071961805555588e+02 2.013542515432098696e+02 2.013179533179012424e+02 2.013059934413580265e+02 2.013150655864197631e+02 2.013324421296296407e+02 2.013399927662037214e+02 2.013473977623456790e+02 2.013602917631172886e+02 2.013828896604938450e+02 2.014281905864197597e+02 2.014651065779320902e+02 2.014677719907407436e+02 2.015082368827160622e+02 2.015821469907407391e+02 2.016136284722222172e+02 2.015156905864197654e+02 2.013734572723765552e+02 2.012494029706790002e+02 2.011618142361110984e+02 2.011148775077160451e+02 2.010677199074074224e+02 2.010518123070987713e+02 2.010473963155864112e+02 2.010525289351851939e+02 2.010516015624999966e+02 2.010597034143518442e+02 2.010798061342592575e+02 2.011007011959876536e+02 2.011411588541666617e+02 2.011896127507716017e+02 2.012351533564815043e+02 2.012918962191358219e+02 2.013076991705246712e+02 2.012144497492284074e+02 2.010784495563271719e+02 2.009397632137345795e+02 2.008412408371913500e+02 2.007699040316358037e+02 2.007098693094135626e+02 2.006836670524691328e+02 2.006782079475308649e+02 2.006784042245370472e+02 2.004837128665123203e+02 2.005090417631172954e+02 2.005683420138888948e+02 2.006114568865740750e+02 2.006587133487654455e+02 2.007250602816357912e+02 2.007966575038580288e+02 2.008642033179012287e+02 2.008783347800925867e+02 2.007947955246913807e+02 2.006578091242284074e+02 2.005519073109568069e+02 2.004856148726851757e+02 2.004442881944444252e+02 2.004019555362654330e+02 2.003917390046296418e+02 2.003988527199074099e+02 2.004013290895061914e+02 2.004052854938271651e+02 2.004162389081790252e+02 2.004533232060184957e+02 2.004805372299382498e+02 2.005480227623456813e+02 2.006000612461419621e+02 2.006601191165123623e+02 2.007203824266975403e+02 2.007399778163580493e+02 2.006576494984567773e+02 2.005273688271604726e+02 2.004183984375000023e+02 2.003424643132715914e+02 2.000638396990740659e+02 2.000861101466049377e+02 2.001199377893518374e+02 2.001414072145061596e+02 2.001454079861111097e+02 2.001497878086419746e+02 2.001605690586419826e+02 2.001799729938271355e+02 2.002185170717592655e+02 2.002682262731481728e+02 2.003213372878086602e+02 2.003729407793209703e+02 2.004361067708333337e+02 2.005118730709876331e+02 2.005649927662037157e+02 2.005218045910493743e+02 2.003946797839506360e+02 2.002683781828703786e+02 2.001862210648148164e+02 2.001295418595678939e+02 2.000982257908950714e+02 2.000766830632716164e+02 2.000793769290123407e+02 2.000806857638888800e+02 2.000676933834876650e+02 2.000583960262345897e+02 2.000542119984567933e+02 2.000769198495370347e+02 2.001231500771604885e+02 2.001740393518518601e+02 2.002229600694444400e+02 2.002479880401234595e+02 2.003029026813271400e+02 2.003936231674382498e+02 2.003795674189814804e+02 2.002706134259259443e+02 2.001588908179012378e+02 2.000688430748456881e+02 2.000111029128086386e+02 1.999702006172839504e+02 1.999580931712962979e+02 1.999697386188271651e+02 1.999726982060185208e+02 1.999661738040123566e+02 1.999763223379629551e+02 1.999926094714506064e+02 2.000117650462962899e+02 2.000466343557098696e+02 2.000933820408950510e+02 2.002070365547839685e+02 2.002737977430555532e+02 2.003448027584876741e+02 2.003516213348765405e+02 2.002603993055555804e+02 2.001231331983024688e+02 2.000086082175925810e+02 1.999256606867283779e+02 1.998623090277777976e+02 1.998184505208333519e+02 1.997919169560185253e+02 1.997808651620370313e+02 1.996177666859567807e+02 1.996394762731481478e+02 1.996732436342592507e+02 1.996930000964506178e+02 1.997286521026234709e+02 1.997542293595679155e+02 1.998157547260802573e+02 1.998801007908950567e+02 1.999437847222222331e+02 2.000260252700617229e+02 2.000966208526234595e+02 2.001361048418209805e+02 2.000801697530864374e+02 1.999537099729938348e+02 1.998264072145061903e+02 1.997349701003086295e+02 1.996646764081790195e+02 1.996008965084876650e+02 1.995578660300925833e+02 1.995341131365740921e+02 1.995394618055555611e+02 1.995527989969135945e+02 1.995543682484567967e+02 1.995597501929012481e+02 1.995837094907407447e+02 1.996246387924382759e+02 1.996652329282407550e+02 1.997153380594135683e+02 1.997763396990740716e+02 1.998347444058641997e+02 1.999030762924382714e+02 2.000331843171296100e+02 2.000798852237654160e+02 2.001446542245370495e+02 2.000910556520061903e+02 1.999593180941357957e+02 1.998424136766975323e+02 1.997642283950617355e+02 1.997117578124999966e+02 1.996619179205247008e+02 1.996517173032407300e+02 1.996459360532407459e+02 1.996319319058641781e+02 1.996271764081790252e+02 1.996359630594135979e+02 1.996502049575617264e+02 1.996939602623456835e+02 1.997224556327160485e+02 1.997565485146604942e+02 1.998148664158950680e+02 1.998780054012345602e+02 1.999545611496913580e+02 2.000237355324074144e+02 2.000943422067901167e+02 2.001240875771605090e+02 2.000560932677469168e+02 1.999363175154321084e+02 1.998300945216049342e+02 1.997612109375000102e+02 1.997192607060185310e+02 1.996933820408950453e+02 1.997078120177469032e+02 1.996232556905864328e+02 1.996651591435185367e+02 1.997152088155864078e+02 1.997388715277777749e+02 1.997695548804012162e+02 1.997991319444444400e+02 1.998550197723765507e+02 1.999177864583333246e+02 1.999774199459876627e+02 2.000474744405864271e+02 2.001350347222222297e+02 2.002190137924382611e+02 2.003136631944444446e+02 2.003894381751543108e+02 2.003652064043209862e+02 2.002617616705246917e+02 2.001536154513889016e+02 2.000208367091049126e+02 1.999651654128086307e+02 1.999533666087962729e+02 1.999547386188271503e+02 1.999720003858024597e+02 1.999868147183642009e+02 1.999855164930555702e+02 2.000024387538580299e+02 2.000187133487654307e+02 2.000645442708333519e+02 2.001150443672839572e+02 2.001661405285493629e+02 2.002306828703703729e+02 2.003349083719135990e+02 2.004064843749999909e+02 2.005314192708333110e+02 2.006564472415123248e+02 2.007105087770061687e+02 2.006565798611111120e+02 2.005374874614197438e+02 2.004252314814814895e+02 2.003417317708333201e+02 2.002916073495370313e+02 2.002709592013888766e+02 2.002710614390432227e+02 2.002898398919753049e+02 2.003089959490740739e+02 2.003244661458333269e+02 2.003334881365740614e+02 2.003511275077160576e+02 2.003884577546296271e+02 2.004399156057098708e+02 2.005068200231481512e+02 2.005633540702160360e+02 2.006398731674382816e+02 2.007070380015432249e+02 2.007945891203703752e+02 2.008848847415123373e+02 2.009533815586419507e+02 2.009232667824074099e+02 2.008100260416666742e+02 2.006964207175925878e+02 2.006152184606481512e+02 2.005814221643518636e+02 2.004116391782407334e+02 2.004395751350308785e+02 2.004995712770061687e+02 2.005408338155864101e+02 2.005514004629629596e+02 2.005592370756172897e+02 2.005767906057099026e+02 2.006087697723765473e+02 2.006621146797839685e+02 2.007143007330246860e+02 2.007796778549382850e+02 2.008461005015432193e+02 2.009176384066358025e+02 2.010021913580247030e+02 2.010524691358024540e+02 2.009778346836419871e+02 2.008476224922839322e+02 2.007173369984568012e+02 2.006175342399691317e+02 2.005611419753086295e+02 2.005285812114197483e+02 2.005077806712963024e+02 2.005059649884259443e+02 2.005093113425925822e+02 2.004935493827160542e+02 2.004848148148148255e+02 2.004945780285493697e+02 2.005113503086419655e+02 2.005460947145061823e+02 2.006063363233024575e+02 2.006527054398148096e+02 2.006768986304012117e+02 2.007290084876543119e+02 2.008141767939814883e+02 2.008208502121913455e+02 2.007089409722222229e+02 2.005475139853394921e+02 2.004238990162037055e+02 2.003331336805555338e+02 2.002646387924382907e+02 2.002239602623456847e+02 2.001927281057098753e+02 2.001862750771605022e+02 2.001771932870370279e+02 2.001685368441358150e+02 2.001648336226851939e+02 2.001762736304012265e+02 2.002051162229938086e+02 2.002907132523148164e+02 2.003466613618826955e+02 2.003844362461419735e+02 2.004381910686728645e+02 2.005002237654321107e+02 2.005032344714506110e+02 2.004011125578703627e+02 2.002415494791666788e+02 2.000958097029321152e+02 1.999963937114197279e+02 1.999280372299382691e+02 1.998873017939814929e+02 1.998421291473765393e+02 1.996329026813271525e+02 1.996664583333333383e+02 1.996928366126543324e+02 1.997055314429012469e+02 1.997260315393518511e+02 1.997612919560185105e+02 1.998034326774691465e+02 1.998582079475308717e+02 1.999240041473765359e+02 1.999794613233024734e+02 2.000466116898148243e+02 2.001191473765432249e+02 2.001967915702160496e+02 2.001984765624999909e+02 2.000838358410493640e+02 1.999468209876543199e+02 1.998425573881172852e+02 1.997671484374999977e+02 1.997122284915123203e+02 1.996760971257716051e+02 1.996568296682098662e+02 1.996604856288580265e+02 1.996465784143518647e+02 1.996273659336419826e+02 1.996231688850308785e+02 1.996385363618827000e+02 1.996820707947530877e+02 1.997119058641975471e+02 1.997670905671296282e+02 1.998213671875000159e+02 1.998703510802469054e+02 1.999379263117284040e+02 1.999911974344135785e+02 2.000149638310185196e+02 1.999300120563271719e+02 1.997889781057098730e+02 1.996790268132716051e+02 1.995922410300925947e+02 1.995360580632716108e+02 1.995118171296296339e+02 1.995069810956790093e+02 1.995145143711419564e+02 1.995185985725308626e+02 1.995059032600308626e+02 1.995167500964506360e+02 1.995299074074073928e+02 1.995655102237654148e+02 1.996063252314814633e+02 1.996652030285493993e+02 1.997359013310185105e+02 1.997804431905863964e+02 1.998625270061728543e+02 1.999069772376543312e+02 1.998867934992283892e+02 1.997786617476851916e+02 1.996502941743827364e+02 1.995517862654320993e+02 1.994888715277777749e+02 1.994545095486110995e+02 1.994138493441358264e+02 1.993937548225308660e+02 1.993931732253086295e+02 1.992170355902777885e+02 1.992509370177469350e+02 1.992913826195987781e+02 1.993295206404320936e+02 1.993738478973765496e+02 1.994282682291666617e+02 1.994866849922839549e+02 1.995600279706790161e+02 1.996313329475308649e+02 1.997178038194444412e+02 1.998185918209876490e+02 1.998844888117284029e+02 1.998508868634259272e+02 1.997455087770061652e+02 1.996190760030864055e+02 1.995179147376543369e+02 1.994249069251543176e+02 1.993701012731481512e+02 1.993469275655864124e+02 1.993373186728395012e+02 1.993345881558641963e+02 1.993355169753086500e+02 1.993404436728395126e+02 1.993546479552469179e+02 1.993807860725308672e+02 1.994109321952160485e+02 1.994570081018518692e+02 1.995184862075617502e+02 1.995809293016975516e+02 1.996327387152777817e+02 1.997311467978395001e+02 1.997875761959876684e+02 1.998336762152777624e+02 1.997536048418209873e+02 1.995964573688271457e+02 1.994817433449074144e+02 1.993819410686728588e+02 1.993043171296296237e+02 1.992445163001543165e+02 1.992025313464506269e+02 1.991859452160493902e+02 1.991800101273148300e+02 1.991575434027777760e+02 1.991380531442900974e+02 1.991414048032407322e+02 1.991649344135802551e+02 1.991941767939814838e+02 1.992329533179012344e+02 1.992789081790123475e+02 1.993211771797839731e+02 1.993860513117284086e+02 1.994459302662037032e+02 1.995171228780864112e+02 1.995611733217592700e+02 1.995071088927469134e+02 1.993862287808642009e+02 1.992766695601851836e+02 1.991934534143518647e+02 1.991327575231481433e+02 1.990866994598765416e+02 1.990622116126543233e+02 1.989052449845679007e+02 1.989330406057098912e+02 1.989564916087962843e+02 1.989728530092592678e+02 1.989878563850308524e+02 1.990295732060185117e+02 1.990831462191358128e+02 1.991345949074074042e+02 1.991972853973765609e+02 1.992789940200617309e+02 1.993545756172839560e+02 1.994241560570987701e+02 1.994684982638888755e+02 1.994088633294753095e+02 1.993006833526234516e+02 1.991955502507716176e+02 1.991258236882715948e+02 1.990965417631172727e+02 1.990530782214506189e+02 1.990498519483024893e+02 1.990659789737654251e+02 1.990532581018518385e+02 1.990460783179012481e+02 1.990343340084876331e+02 1.990459924768518647e+02 1.990702898341049547e+02 1.991139023919753015e+02 1.991677830825617264e+02 1.992278187692901383e+02 1.992989781057098924e+02 1.993665576774691317e+02 1.994876224922839469e+02 1.995200009645061812e+02 1.994971604938271525e+02 1.993831650270061857e+02 1.992575554591049354e+02 1.991492795138888710e+02 1.990597829861110881e+02 1.989982802854938200e+02 1.989481766010802346e+02 1.989164867862654376e+02 1.989134654706790002e+02 1.988954909336419803e+02 1.988938257137345431e+02 1.988793277391975209e+02 1.988863392168209998e+02 1.989628067129629585e+02 1.990102917631172943e+02 1.990573533950617389e+02 1.991122313850308672e+02 1.991658940972222069e+02 1.992239559220679155e+02 1.992564689429012219e+02 1.992148210841049547e+02 1.991016628086419757e+02 1.989674903549382634e+02 1.988492457561728486e+02 1.987681539351851825e+02 1.986852522183641838e+02 1.986175067515432033e+02 1.994287852044753038e+02 2.020633777006172807e+02 2.027219020061728543e+02 2.030463913001543119e+02 2.032595789930555554e+02 2.033997092013889016e+02 2.035205825617283892e+02 2.036117862654321016e+02 2.037017327353395046e+02 2.037937490354938177e+02 2.038878722993827068e+02 2.039591169945987588e+02 2.040490432098765439e+02 2.041416280864197574e+02 2.041752416087962843e+02 2.041040952932098662e+02 2.039773177083333167e+02 2.038559268904321016e+02 2.037865055941358037e+02 2.037309558256172863e+02 2.036844169560185378e+02 2.036719266010802301e+02 2.036841478587963081e+02 2.037070674189814952e+02 2.037125096450617150e+02 2.037201147762345670e+02 2.037492028356481626e+02 2.037928423996913807e+02 2.038599585262345784e+02 2.039276827739197699e+02 2.039906973379629562e+02 2.040820519868827319e+02 2.042703891782407482e+02 2.043388966049382702e+02 2.043956539351851802e+02 2.045057040895061959e+02 2.045449850501543381e+02 2.044953404706790252e+02 2.043893103780864067e+02 2.042902845293209850e+02 2.042214578510802312e+02 2.041696286651234402e+02 2.041515697337962933e+02 2.041491681134259295e+02 2.041627179783950510e+02 2.041940480324074088e+02 2.042018643904320925e+02 2.042207696759259079e+02 2.042446624228394967e+02 2.042964154128086420e+02 2.043375106095678859e+02 2.044144106867283881e+02 2.044818923611111074e+02 2.045560575810185071e+02 2.046014245756172727e+02 2.046719728973765484e+02 2.047325935570987667e+02 2.047652961033950874e+02 2.047058883101851734e+02 2.046100038580246974e+02 2.045033328510802448e+02 2.044419685570987610e+02 2.044214332561728327e+02 2.043992192322530741e+02 2.044323244598765541e+02 2.044451441936728600e+02 2.044697111304012367e+02 2.044828404706790081e+02 2.044970847800925924e+02 2.045352179783950817e+02 2.045929779128086352e+02 2.046440697337963002e+02 2.047086617476851700e+02 2.047841449652777612e+02 2.048666927083333462e+02 2.049477551118827137e+02 2.050024889081790036e+02 2.048831929976851995e+02 2.047431814236111052e+02 2.046544791666666754e+02 2.045859534143518488e+02 2.045542621527777669e+02 2.045409862075617298e+02 2.045403264853395058e+02 2.045703221450617093e+02 2.045897106481481558e+02 2.046101904899691419e+02 2.046306211419752970e+02 2.046760797646604999e+02 2.047317515432098674e+02 2.047964125192901292e+02 2.048688083526234607e+02 2.049505097415123203e+02 2.051018393132715971e+02 2.051675197723765507e+02 2.051821146797839504e+02 2.051271243248456813e+02 2.049795437885802301e+02 2.048502184606481364e+02 2.047580695408950646e+02 2.046931520061728236e+02 2.046479311342592666e+02 2.046282527970679155e+02 2.046336361882715948e+02 2.046496595293209850e+02 2.046740702160493584e+02 2.046899836033950635e+02 2.047110638503086193e+02 2.047356196952160587e+02 2.047750096450617150e+02 2.048316208526234448e+02 2.048861101466049490e+02 2.049494232253086352e+02 2.050155642361111177e+02 2.050737905092592541e+02 2.050974913194444298e+02 2.050307036072530877e+02 2.048858641975308785e+02 2.047655671296296305e+02 2.046648186728395160e+02 2.046139221643518624e+02 2.045772424768518647e+02 2.045579436728395137e+02 2.045607947530864124e+02 2.044627681327160360e+02 2.044876533564814736e+02 2.044964525462962968e+02 2.045198615933641975e+02 2.045694642168209896e+02 2.046292457561728497e+02 2.047004504243827228e+02 2.047711848958333576e+02 2.048454239004629471e+02 2.049254716435185060e+02 2.050128809799382736e+02 2.050784770447531002e+02 2.050608179012345431e+02 2.049537847222222240e+02 2.048248760609567967e+02 2.047284910300926128e+02 2.046780979938271514e+02 2.046402387152777749e+02 2.046297526041666686e+02 2.046456524884259238e+02 2.046615764853395092e+02 2.046806761188271651e+02 2.046953240740740796e+02 2.047276519097222263e+02 2.047664670138888710e+02 2.048145963541666674e+02 2.048729764660493800e+02 2.049433994020061789e+02 2.050152285879629517e+02 2.050910773533950646e+02 2.051605140817900974e+02 2.053426543209876627e+02 2.053725699266975369e+02 2.052765644290123248e+02 2.051361304012345670e+02 2.050132093942901292e+02 2.049488054591049320e+02 2.049084929591049331e+02 2.048899551504629528e+02 2.048887712191358048e+02 2.049138864776234641e+02 2.049292597415123396e+02 2.049252030285493902e+02 2.049239433834876536e+02 2.049376393711419553e+02 2.050378713348765416e+02 2.050852194251543210e+02 2.051377951388888903e+02 2.052044314236111120e+02 2.052678949652777760e+02 2.053150472608024586e+02 2.053186400462963093e+02 2.052072530864197688e+02 2.050611308834876638e+02 2.049483858989197529e+02 2.048724021026234539e+02 2.048225646219135854e+02 2.047884688464506269e+02 2.047856351273148050e+02 2.047931086033950407e+02 2.048029345100308660e+02 2.046601851851851848e+02 2.046804976851851734e+02 2.046895240162037055e+02 2.047361612654320879e+02 2.047843195408950407e+02 2.048336414930555804e+02 2.048965788966049502e+02 2.049536713927469123e+02 2.050148678626543131e+02 2.050698861882715960e+02 2.050141473765432067e+02 2.048660358796296350e+02 2.047208661265432283e+02 2.046166150655864158e+02 2.045464236111111234e+02 2.044958478009259295e+02 2.044649715470679041e+02 2.044727608989197449e+02 2.044967004243827091e+02 2.044993542631172829e+02 2.045019208140432170e+02 2.045243711419753083e+02 2.045623191550925810e+02 2.046148341049382680e+02 2.046631838348765484e+02 2.047368827160493936e+02 2.048163343942901236e+02 2.048867274305555384e+02 2.049564033564814736e+02 2.049629470486111131e+02 2.048794926697530911e+02 2.045737147955246940e+02 2.045438589891975312e+02 2.044679489776234504e+02 2.044131211419753242e+02 2.043797395833333326e+02 2.043740634645061789e+02 2.043811680169753231e+02 2.043860407021604999e+02 2.043831100501543290e+02 2.043944979745370176e+02 2.044246981095678848e+02 2.044534350887345795e+02 2.044985575810185310e+02 2.045650593171296237e+02 2.046196648341049240e+02 2.046907634066357957e+02 2.047532441165123203e+02 2.048249701003086329e+02 2.048584341242284097e+02 2.047987663966049183e+02 2.046613170331789888e+02 2.045310768711419769e+02 2.044408564814814895e+02 2.043584191743827319e+02 2.043159944058641884e+02 2.042885532407407538e+02 2.042970896026234584e+02 2.043087191358024484e+02 2.043111511381173102e+02 2.043061506558642009e+02 2.043272048611111131e+02 2.042884833140432193e+02 2.043323664158950521e+02 2.043808955439814952e+02 2.044562056327160633e+02 2.045324170524691283e+02 2.046223230131172954e+02 2.046971098572530821e+02 2.047422743055555543e+02 2.046891869212962831e+02 2.045525540123456665e+02 2.044237408371913602e+02 2.043394420331790116e+02 2.042697019675925958e+02 2.042254918981481353e+02 2.042357445987654216e+02 2.042449204282407322e+02 2.042501456404320948e+02 2.042456274112654455e+02 2.042608675733024484e+02 2.042928443287037226e+02 2.043285445601851791e+02 2.043946113040123578e+02 2.044511434220679007e+02 2.045150911458333383e+02 2.045815813078703798e+02 2.046455362654320993e+02 2.046188483796296396e+02 2.045020442708333519e+02 2.043637167245370279e+02 2.042453660300925833e+02 2.040218841628086466e+02 2.040144097222222115e+02 2.040014033564814895e+02 2.040102001350308569e+02 2.040332836612654148e+02 2.040376596257715960e+02 2.040307923418209839e+02 2.040416859567901326e+02 2.040744979745370529e+02 2.041272183641975460e+02 2.041757870370370540e+02 2.042222873263888800e+02 2.042793262924382702e+02 2.043328559027777658e+02 2.043923755787037067e+02 2.044388594714506269e+02 2.044110508294753288e+02 2.042860918209876502e+02 2.041303669945987735e+02 2.040098996913580436e+02 2.039171469907407186e+02 2.038423861882716039e+02 2.037825255594135854e+02 2.037502054398148061e+02 2.037359789737654410e+02 2.037364019097222183e+02 2.037418542631172897e+02 2.037503414351851916e+02
8.171337770061729344e+00 8.178153935185184409e+00 8.249448302469136962e+00 8.381766975308641676e+00 8.353700327932099157e+00 8.247009066358025109e+00 8.165596064814815591e+00 8.127090567129629406e+00 8.092468171296296475e+00 8.087719907407405984e+00 8.110254629629629619e+00 8.128858024691357542e+00 8.135412808641975246e+00 8.152405478395062133e+00 8.183209394290123839e+00 8.255877218364195969e+00 8.129994695216048228e+00 7.855565200617283139e+00 7.529370177469135506e+00 7.203351658950617242e+00 6.871336323302468685e+00 6.453669945987654977e+00 6.017547260802468934e+00 5.632311921296296653e+00 6.511547550154321407e+00 7.149663869598765764e+00 7.277013406635802539e+00 7.364645543981481524e+00 7.450026041666666821e+00 7.548800154320987055e+00 7.663049286265431803e+00 7.740119116512345521e+00 7.755061728395062026e+00 7.871441936728395206e+00 8.003876832561727994e+00 8.130195794753085181e+00 8.185635609567901483e+00 8.280897955246912190e+00 8.409342206790123342e+00 8.548341049382717216e+00 8.628348765432098944e+00 8.566127989969135825e+00 8.432566550925926663e+00 8.300325520833332860e+00 8.187123360339505496e+00 8.109843267746914108e+00 8.050203028549383077e+00 8.027601755401235550e+00 8.018904803240740620e+00 8.032998167438272219e+00 8.045816454475309243e+00 8.058571566358024185e+00 8.095584490740741046e+00 8.155746045524690402e+00 8.225498167438271224e+00 8.316952160493826796e+00 8.424070698302470461e+00 8.548158757716048939e+00 8.697289255401233987e+00 8.787356770833332220e+00 8.729329668209876658e+00 8.595734471450617420e+00 8.326326195987654444e+00 8.281048418209875805e+00 8.235360243055554363e+00 8.206433738425925384e+00 8.186686921296297825e+00 8.190055459104938151e+00 8.192791763117284631e+00 8.201401909722221717e+00 8.216308834876544509e+00 8.251666184413579685e+00 8.293801601080247110e+00 8.369726562500000355e+00 8.457615258487654941e+00 8.575135513117285058e+00 8.710678530092591743e+00 8.829504726080246613e+00 8.839591049382715227e+00 8.718826195987654515e+00 8.553671875000000924e+00 8.413624131944443363e+00 8.318767361111110148e+00 8.243913966049383646e+00 8.187539544753086318e+00 8.180342881944445921e+00 8.182077546296294912e+00 8.191569733796297825e+00 8.205207851080247750e+00 8.217869888117283139e+00 8.256268325617284631e+00 8.309446373456790269e+00 8.377937885802468898e+00 8.526827256944445210e+00 8.590832851080246968e+00 8.704478684413579970e+00 8.762420428240741188e+00 8.678410976080247252e+00 8.498154899691357400e+00 8.318437017746914464e+00 8.165490933641974536e+00 8.041705246913579685e+00 7.942777777777778603e+00 7.878377218364197354e+00 7.855439814814815236e+00 7.839680266203703063e+00 7.830428240740739732e+00 7.834038869598765942e+00 7.857243923611110681e+00 7.899765625000000568e+00 7.961456404320988334e+00 8.037709780092592737e+00 8.132885802469136394e+00 8.246985435956789345e+00 8.325825617283950209e+00 8.268157793209876871e+00 8.081144386574074190e+00 7.899782021604938365e+00 7.750630304783950209e+00 7.633793885030864423e+00 7.547490354938271473e+00 7.478242187499999361e+00 7.456532600308642067e+00 7.441196469907407796e+00 7.387215470679011631e+00 7.400416666666666643e+00 7.431508969907407725e+00 7.478542631172839350e+00 7.549884259259258990e+00 7.626808449074074403e+00 7.737193287037038125e+00 7.853208912037037415e+00 7.917443576388888182e+00 7.849730420524691610e+00 7.691396122685185688e+00 7.536100983796296227e+00 7.414389467592592098e+00 7.309076967592592844e+00 7.258217110339506561e+00 7.236030574845679020e+00 7.228238811728394886e+00 7.232734374999999716e+00 7.232080439814815520e+00 7.246325713734568019e+00 7.278029513888888857e+00 7.320373263888889426e+00 7.388281732253086709e+00 7.483016010802469253e+00 7.571429880401234769e+00 7.691909722222223245e+00 7.763261959876542662e+00 7.702819251543210122e+00 7.551745273919753920e+00 7.377454185956790589e+00 7.236303530092592418e+00 7.033646315586420172e+00 7.021975790895061742e+00 7.020275366512345627e+00 7.024534143518518015e+00 7.025037615740740371e+00 7.027505304783950635e+00 7.035522762345678416e+00 7.061635320216049116e+00 7.110448495370370381e+00 7.179431423611110752e+00 7.250285976080246719e+00 7.347312885802469218e+00 7.455920138888888715e+00 7.568067611882716150e+00 7.669075520833333215e+00 7.666865354938271260e+00 7.524308449074074368e+00 7.354298804012346480e+00 7.197662037037037663e+00 7.098495852623456948e+00 7.010309124228395028e+00 6.961305941358024718e+00 6.934293981481482128e+00 6.918027102623456770e+00 6.898163580246913007e+00 6.878605806327160899e+00 6.883053626543210513e+00 6.910615354938271615e+00 6.957893036265431874e+00 7.022570891203703702e+00 7.094795042438271970e+00 7.268472704475308355e+00 7.346282793209875983e+00 7.444465181327160508e+00 7.460660204475308532e+00 7.353883584104938365e+00 7.179498939043210015e+00 7.028384452160493900e+00 6.935207368827160046e+00 6.851994598765431377e+00 6.801613136574074403e+00 6.789663387345679091e+00 6.786277488425925597e+00 6.779549575617283885e+00 6.768146219135802610e+00 6.781598668981481559e+00 6.824579957561728527e+00 6.882021122685184622e+00 6.947758005401234449e+00 7.129276620370370132e+00 7.245560378086420172e+00 7.361022376543209234e+00 7.426045524691358146e+00 7.347060185185185333e+00 7.181584201388888644e+00 6.992199556327160614e+00 6.840018325617283956e+00 6.729028260030864850e+00 6.634290605709876942e+00 6.575064621913580432e+00 6.544889081790123520e+00 6.439134355709876800e+00 6.450681905864198207e+00 6.459618537808641925e+00 6.474881847993827044e+00 6.503972800925925668e+00 6.557850115740740726e+00 6.639040798611111072e+00 6.711725983796296369e+00 6.808516107253086425e+00 6.916820505401235053e+00 7.035290316358024931e+00 7.143592303240740016e+00 7.115532407407407334e+00 6.962052951388888467e+00 6.764724633487654515e+00 6.596015142746913362e+00 6.462816840277778141e+00 6.349779610339505886e+00 6.263451003086419888e+00 6.219756944444443825e+00 6.207240547839505851e+00 6.184323881172839599e+00 6.173517554012345698e+00 6.187972125771604937e+00 6.202002314814815342e+00 6.239201388888888644e+00 6.295149016203703596e+00 6.358261959876543301e+00 6.455625482253085856e+00 6.549722704475308355e+00 6.661092785493827328e+00 6.862532310956789949e+00 6.931432773919753210e+00 7.023746141975307999e+00 6.984269868827160721e+00 6.832890625000000107e+00 6.656482928240740726e+00 6.521107735339506384e+00 6.409992766203703951e+00 6.323864293981481310e+00 6.265247878086420030e+00 6.240338059413580218e+00 6.226055652006173169e+00 6.210071855709876409e+00 6.204161844135803072e+00 6.210793788580247110e+00 6.245566647376542768e+00 6.309129533179012483e+00 6.382577642746913860e+00 6.468787615740740016e+00 6.565354938271604546e+00 6.677612364969135683e+00 6.793003472222222783e+00 6.920095486111111249e+00 6.998505979938271615e+00 6.964288194444444358e+00 6.826151620370369599e+00 6.673797260802468934e+00 6.559711612654321122e+00 6.470911458333334032e+00 6.412235243055556033e+00 6.374470486111111889e+00 6.318587480709876303e+00 6.335314911265432336e+00 6.355001446759259487e+00 6.379369212962963331e+00 6.406178144290123555e+00 6.461416859567902016e+00 6.536028163580247075e+00 6.638981963734567948e+00 6.747954282407406801e+00 6.864874131944444180e+00 7.000222318672839172e+00 7.125647183641975246e+00 7.261952642746913433e+00 7.398958333333333748e+00 7.413527199074073870e+00 7.294255883487654302e+00 7.125625000000000320e+00 6.882298418209876978e+00 6.801900077160493829e+00 6.736375868055555216e+00 6.706746238425925988e+00 6.704623360339505567e+00 6.693905285493826796e+00 6.695022183641975211e+00 6.709457465277777644e+00 6.738066647376543372e+00 6.788996431327160685e+00 6.857429591049382545e+00 6.964105420524691503e+00 7.072898823302469218e+00 7.272511574074074225e+00 7.345644772376543230e+00 7.473780381944444606e+00 7.603392650462962976e+00 7.704510995370370985e+00 7.681974826388888289e+00 7.517769579475308994e+00 7.363219521604938755e+00 7.240529513888889213e+00 7.149947916666667069e+00 7.091760706018518157e+00 7.060716145833333179e+00 7.064982638888888111e+00 7.072612847222222499e+00 7.082982253086419711e+00 7.100504436728394708e+00 7.111468460648148415e+00 7.147357735339506135e+00 7.211980131172839315e+00 7.316310281635802326e+00 7.413989679783950848e+00 7.530819347993826796e+00 7.657287808641974891e+00 7.787866994598766190e+00 7.933162133487654089e+00 8.068838734567901128e+00 8.097243923611111782e+00 7.986398533950617384e+00 7.808586033950617455e+00 7.660569540895061813e+00 7.547272858796296724e+00 7.379312789351851087e+00 7.380270061728395170e+00 7.413914930555555394e+00 7.443012152777777501e+00 7.442262249228395632e+00 7.443227719907407725e+00 7.457092978395061245e+00 7.491868248456790447e+00 7.544739583333333499e+00 7.625884934413579508e+00 7.722810088734567202e+00 7.820238715277778141e+00 7.948873456790122916e+00 8.076567804783950422e+00 8.155326003086418751e+00 8.108532021604936801e+00 7.927024980709876267e+00 7.732040895061727426e+00 7.584141589506172565e+00 7.473822337962962692e+00 7.386996527777777821e+00 7.310479359567900737e+00 7.298574942129629761e+00 7.287211612654321158e+00 7.256714891975309278e+00 7.239741512345679197e+00 7.246075424382715902e+00 7.274754533179012661e+00 7.326899594907406943e+00 7.402640335648148273e+00 7.490555073302469502e+00 7.671834972993826440e+00 7.743131751543210761e+00 7.845386284722222214e+00 7.873023726851852366e+00 7.738003954475309421e+00 7.532567033179012661e+00 7.333719135802469147e+00 7.179436246141976063e+00 7.066778067129630081e+00 6.973608217592592418e+00 6.917060667438271970e+00 6.878017457561727888e+00 6.855092592592592737e+00 6.832154224537037024e+00 6.812219328703703169e+00 6.829677372685185155e+00 6.867293595679011986e+00 6.989681712962962479e+00 7.082649016203704129e+00 7.172791763117283281e+00 7.270777874228395277e+00 7.373254726080246790e+00 7.422901234567901518e+00 7.320940393518518441e+00 7.116710069444444287e+00 6.909163290895061316e+00 6.730980420524691255e+00 6.598001060956789843e+00 6.483987750771604830e+00 6.415659239969135008e+00 6.314297357253086496e+00 6.329655671296295694e+00 6.339258294753085998e+00 6.338292341820987552e+00 6.355411361882715937e+00 6.394384162808641747e+00 6.451773244598765444e+00 6.526000675154321584e+00 6.625740258487654799e+00 6.725679976851852260e+00 6.840577739197531315e+00 6.962836612654321300e+00 7.074446855709876303e+00 7.119491222993826973e+00 7.017387152777777359e+00 6.835574845679012412e+00 6.653478973765432514e+00 6.518288001543210086e+00 6.420208815586419426e+00 6.336151620370370274e+00 6.288696952160494291e+00 6.270239679783951026e+00 6.262170138888889070e+00 6.238879243827160082e+00 6.236706211419753565e+00 6.248172743055556033e+00 6.282219810956790162e+00 6.342712673611110574e+00 6.409949845679012270e+00 6.501208526234568019e+00 6.605329861111111533e+00 6.795407503858024612e+00 6.850909529320987623e+00 6.880933641975309101e+00 6.776508487654321122e+00 6.601241801697530498e+00 6.428761091820987872e+00 6.309207658179012412e+00 6.212529417438271473e+00 6.155642843364197425e+00 6.127145061728395348e+00 6.148049768518518476e+00 6.144261670524691077e+00 6.146996045524691255e+00 6.156106770833332575e+00 6.183575424382715902e+00 6.223563368055555323e+00 6.297842399691357507e+00 6.382434413580246435e+00 6.473261959876542626e+00 6.586559124228394957e+00 6.711673418209875841e+00 6.824812885802469253e+00 6.858196373456790340e+00 6.751137635030864281e+00 6.574897280092592666e+00 6.437305652006172885e+00 6.325237750771605327e+00 6.220781732253086282e+00 6.162620563271604901e+00 6.125175057870370310e+00 6.120619695216049649e+00 6.068633294753086993e+00 6.091801697530863535e+00 6.104591531635802149e+00 6.130904706790123448e+00 6.177493248456789487e+00 6.242897858796295552e+00 6.349497492283950884e+00 6.456580825617283637e+00 6.574278067129629477e+00 6.699878472222222214e+00 6.832464313271604972e+00 6.947048611111110716e+00 6.972118537808642103e+00 6.853433641975308355e+00 6.692686631944444464e+00 6.542894000771604546e+00 6.315834780092592915e+00 6.252037519290123413e+00 6.206398051697530782e+00 6.191059992283950209e+00 6.186092785493826796e+00 6.186140046296296546e+00 6.176468460648147918e+00 6.204441068672839954e+00 6.236487268518518867e+00 6.295566165123456237e+00 6.368452932098765729e+00 6.454521604938271651e+00 6.550168306327161183e+00 6.657709780092592844e+00 6.847300347222222250e+00 6.915202064043209695e+00 6.984876543209876942e+00 6.918617862654320660e+00 6.764452642746913824e+00 6.566183449074073586e+00 6.422078510802468720e+00 6.300999228395061103e+00 6.189090952932098766e+00 6.112478780864197603e+00 6.076979648919753174e+00 6.044822530864197851e+00 6.023297164351851585e+00 6.007013888888888431e+00 6.004294463734567877e+00 6.035341435185184622e+00 6.076276041666666572e+00 6.135046296296296831e+00 6.204086612654321264e+00 6.293661747685185937e+00 6.392941261574073941e+00 6.492829378858024469e+00 6.614788290895061706e+00 6.698164544753086425e+00 6.674405381944445104e+00 6.524806134259258705e+00 6.358166956018518334e+00 6.230130208333332753e+00 6.129639756944444962e+00 6.071066261574073586e+00 6.025539158950617313e+00 5.966811342592592382e+00 5.972658179012346302e+00 5.982735821759259665e+00 5.986494984567901412e+00 6.002512056327161005e+00 6.039919463734568339e+00 6.104808545524690544e+00 6.181535493827160721e+00 6.275315875771604546e+00 6.379619502314814561e+00 6.493262924382715795e+00 6.614827835648148913e+00 6.697693865740740549e+00 6.668536361882716257e+00 6.539207658179011950e+00 6.396596257716049116e+00 6.288817515432098659e+00 6.205410397376543763e+00 6.148117766203704093e+00 6.110163483796296369e+00 6.099242380401235231e+00 6.104306520061729024e+00 6.098847897376542981e+00 6.087573784722222214e+00 6.099133873456790589e+00 6.128578800154320660e+00 6.183050733024691326e+00 6.253120659722222641e+00 6.340912422839505957e+00 6.436948784722222427e+00 6.553220486111110965e+00 6.761627604166666750e+00 6.815366994598766048e+00 6.800433545524691148e+00 6.667524112654320767e+00 6.483436053240740016e+00 6.332341820987654302e+00 6.200001446759259238e+00 6.090165895061728563e+00 6.011350790895061635e+00 5.965483699845679055e+00 5.943433641975309101e+00 5.929737172067901518e+00 5.912794656635802504e+00 5.917000385802468898e+00 5.934309895833333570e+00 6.024715952932098162e+00 6.097925829475308923e+00 6.169861111111110574e+00 6.261943479938271828e+00 6.365952932098765338e+00 6.474580439814815236e+00 6.577473476080246684e+00 6.571353202160493900e+00 6.442213059413580467e+00 6.256182966820987623e+00 6.084612750771604794e+00 5.947432966820987765e+00 5.829748746141975246e+00 5.724295910493826689e+00 5.887324942129629868e+00 6.359320505401234946e+00 6.588394097222222356e+00 6.650352044753086389e+00 6.694353298611111391e+00 6.710770640432098588e+00 6.759319058641975353e+00 6.818675250771605079e+00 6.888208912037036669e+00 6.971636284722221966e+00 7.065664062499999787e+00 7.169079861111111285e+00 7.286008873456790269e+00 7.415361689814814916e+00 7.492399209104938507e+00 7.437112268518518476e+00 7.295387731481481453e+00 7.141038773148148167e+00 7.022214023919753245e+00 6.920281635802468578e+00 6.830668885030863891e+00 6.784971064814815378e+00 6.754003665123456734e+00 6.743793402777777501e+00 6.749094328703703738e+00 6.751329571759259629e+00 6.772830343364197425e+00 6.823529128086419426e+00 6.893033371913580787e+00 6.986364293981481843e+00 7.093990644290124159e+00 7.226089409722222356e+00 7.537749324845679055e+00 7.608579282407407440e+00 7.712904610339506029e+00 7.857776331018518690e+00 7.949683641975307857e+00 7.930473090277778248e+00 7.808315489969136713e+00 7.680014949845678451e+00 7.566867766203704271e+00 7.487679398148148202e+00 7.428183834876542768e+00 7.404139660493827435e+00 7.401778549382716399e+00 7.421723572530863677e+00 7.424805169753086354e+00 7.422431520061728349e+00 7.450417631172839172e+00 7.499844714506172849e+00 7.561900559413579970e+00 7.658081114969135683e+00 7.756770833333333393e+00 7.874003182870369599e+00 7.995743634259260268e+00 8.150126350308640966e+00 8.291043595679012057e+00 8.393484278549381727e+00 8.372780671296295552e+00 8.264801793981481737e+00 8.146727430555555927e+00 8.055929783950617207e+00 7.993115837191357542e+00 7.892832754629629299e+00 7.903789062500000462e+00 7.928965567129629299e+00 7.948764467592591920e+00 7.970479841820987232e+00 7.994224537037037948e+00 8.033341531635802113e+00 8.089064429012344348e+00 8.162377025462962621e+00 8.262210165895062630e+00 8.372166280864197674e+00 8.499484471450617917e+00 8.638023244598764805e+00 8.773694058641973825e+00 8.695310088734569121e+00 8.547968267746913540e+00 8.413711419753084897e+00 8.307163869598765515e+00 8.223907214506173347e+00 8.175066068672839137e+00 8.164392843364197461e+00 8.165924961419753103e+00 8.163259066358024896e+00 8.167343267746915103e+00 8.185791377314815875e+00 8.230209297839506277e+00 8.288773630401234271e+00 8.379034529320987801e+00 8.475711805555555145e+00 8.583790509259259238e+00 8.893434606481481097e+00 8.980460069444445637e+00 9.038207947530864317e+00 9.005393036265433082e+00 8.844896797839506775e+00 8.677884837962963616e+00 8.524580922067901412e+00 8.393002989969136962e+00 8.312147472993826725e+00 8.242155189043209873e+00 8.213495370370370807e+00 8.203011188271604581e+00 8.204019579475309243e+00 8.194800347222221504e+00 8.203762056327160934e+00 8.242256462191358324e+00 8.293339602623456486e+00 8.375720968364198882e+00 8.455460069444445281e+00 8.552616705246913753e+00 8.664783950617284347e+00 8.795949556327160579e+00 8.892604166666666643e+00 8.850208333333332789e+00 8.704565007716048797e+00 8.536539834104937441e+00 8.397992380401234414e+00 8.290080054012346267e+00 8.206135706018518050e+00 8.150081500771603871e+00 8.119523051697530747e+00 8.048305362654321726e+00 8.063505015432099299e+00 8.084311342592592098e+00 8.110172164351851620e+00 8.165525173611110077e+00 8.230394000771605434e+00 8.327519772376541951e+00 8.431272183641974394e+00 8.559886188271605079e+00 8.699367283950618202e+00 8.842692901234567415e+00 8.987700617283950422e+00 9.024568865740739909e+00 8.928564332561728989e+00 8.774815779320988440e+00 8.626853780864196963e+00 8.509310378086420101e+00 8.415428240740741472e+00 8.353333815586420741e+00 8.324990837191357684e+00 8.315842013888888218e+00 8.311113522376542662e+00 8.304934413580246755e+00 8.327336033950617278e+00 8.363968942901234271e+00 8.421715856481482021e+00 8.508117766203703525e+00 8.609462287808641534e+00 8.724489776234566563e+00 8.853439429012345485e+00 8.984492187499999005e+00 9.334365837191358040e+00 9.370422935956788990e+00 9.297790798611112351e+00 9.135883969907407476e+00 8.964665798611109793e+00 8.828746141975308603e+00 8.724438657407405984e+00 8.649453607253086318e+00 8.614722222222221504e+00 8.606428915895062204e+00 8.600063175154321726e+00 8.586818576388889568e+00 8.575215567129630401e+00 8.582842399691358537e+00 8.683585551697531102e+00 8.761667631172839421e+00 8.851377797067900843e+00 8.947095389660493225e+00 9.067402584876543159e+00 9.188913001543209447e+00 9.239739583333333783e+00 9.141795910493828003e+00 8.975875771604938436e+00 8.807731963734568126e+00 8.684565972222221930e+00 8.585356867283950422e+00 8.501633391203704093e+00 8.464323398919752606e+00 8.444824459876544509e+00 8.427589699074074403e+00 8.368794849537037450e+00 8.378434606481482305e+00 8.395138406635803463e+00 8.448135127314815307e+00 8.509941647376543017e+00 8.587056327160494718e+00 8.691683063271604226e+00 8.799724633487654657e+00 8.907426215277778780e+00 9.016893325617283850e+00 8.989991801697529539e+00 8.827248746141975744e+00 8.639896797839504927e+00 8.455475501543210370e+00 8.305634162808642529e+00 8.194702449845680192e+00 8.097091531635802752e+00 8.053876350308641463e+00 8.032238136574074261e+00 8.004706307870371518e+00 7.984885706018519436e+00 7.999471450617283708e+00 8.030816936728394140e+00 8.085353973765432301e+00 8.164708236882715298e+00 8.270529513888888573e+00 8.382934510030864317e+00 8.509957561728395348e+00 8.647241994598765302e+00 8.723348283179012341e+00 8.659164255401234911e+00 8.343087866512345130e+00 8.256223476080245760e+00 8.128319830246914179e+00 8.023491030092591458e+00 7.926817129629629477e+00 7.868152488425924851e+00 7.842491319444444109e+00 7.822322048611111356e+00 7.800979938271604297e+00 7.800978973765431590e+00 7.809314236111111640e+00 7.840553626543210086e+00 7.896751543209876267e+00 7.984005111882716221e+00 8.074687499999999574e+00 8.186818576388889213e+00 8.323696952160494433e+00 8.458542631172839776e+00 8.551033468364197532e+00 8.509177758487654231e+00 8.365071855709876658e+00 8.200415219907407405e+00 8.051492091049382793e+00 7.935295138888888822e+00 7.841972415123456663e+00 7.770251736111111640e+00 7.726989293981481488e+00 7.707302276234567096e+00 7.692938850308641996e+00 7.683170814043210228e+00 7.692009548611110858e+00 7.735797164351852828e+00 7.780397376543209731e+00 7.855751350308642245e+00 7.958943865740740087e+00 8.061226851851852615e+00 8.186118344907407973e+00 8.318501639660494718e+00 8.408710455246913185e+00 8.380866608796296191e+00 8.250803433641975104e+00 8.088879243827161503e+00 7.944860628858025464e+00 7.826653163580247430e+00 7.682559799382715937e+00 7.667300347222222534e+00 7.649803240740741472e+00 7.621801697530864672e+00 7.612479745370370310e+00 7.615826581790123839e+00 7.655951485339506313e+00 7.703555169753085963e+00 7.771201292438271402e+00 7.858381558641975850e+00 7.968353587962962337e+00 8.091614101080248034e+00 8.206579378858025464e+00 8.221304494598765444e+00 8.115721450617282784e+00 7.936289062500001101e+00 7.791579861111110894e+00 7.497750771604938080e+00 7.458808352623456095e+00 7.399155092592592631e+00 7.379548128858024469e+00 7.383630401234567486e+00 7.376014660493827257e+00 7.372957175925925810e+00 7.383397955246914002e+00 7.418858989197531173e+00 7.477427179783950884e+00 7.542784047067901732e+00 7.638736979166666607e+00 7.744201388888888538e+00 7.854497492283950777e+00 7.976515239197530249e+00 8.087770543981481097e+00 8.096128472222222427e+00 7.974079861111111889e+00 7.795421489197530640e+00 7.630509259259260268e+00 7.494023437500000107e+00 7.363318865740740016e+00 7.259039834104937583e+00 7.191838348765431377e+00 7.146263020833333535e+00 7.133602912808642671e+00 7.142204378858025393e+00 7.157693383487654160e+00
2.599713541666667016e+00 2.590123456790123679e+00 2.372169656635802593e+00 1.766708140432098784e+00 1.508173707561728305e+00 1.440715663580246941e+00 1.419137249228394904e+00 1.416544174382716070e+00 1.423208429783950679e+00 1.432054398148148167e+00 1.459622395833333419e+00 1.483241705246913567e+00 1.497264178240740762e+00 1.508121141975308666e+00 1.521291956018518521e+00 1.550842013888888760e+00 1.476236496913580165e+00 1.357489872685185173e+00 1.277117573302469111e+00 1.241519097222222312e+00 1.204642168209876463e+00 1.178697916666666679e+00 1.144390914351851807e+00 1.131656057098765489e+00 1.306800733024691352e+00 1.358434606481481399e+00 1.402587287808641836e+00 1.431829668209876560e+00 1.455472608024691361e+00 1.488715760030864255e+00 1.519814814814814952e+00 1.621566840277777644e+00 1.615851176697530756e+00 1.560540123456790162e+00 1.541359471450617136e+00 1.536426986882716061e+00 1.541050347222222117e+00 1.555376157407407423e+00 1.577805748456790225e+00 1.600176986882716035e+00 1.607909915123456823e+00 1.562611400462962985e+00 1.495731095679012412e+00 1.440531442901234582e+00 1.409888117283950582e+00 1.392041377314814810e+00 1.381471354166666776e+00 1.396231192129629539e+00 1.412738715277777724e+00 1.447959587191357977e+00 1.461409143518518583e+00 1.482571373456790020e+00 1.511801697530864352e+00 1.545949556327160579e+00 1.589431423611111116e+00 1.627536168981481568e+00 1.648101369598765409e+00 1.666632426697530756e+00 1.663000578703703880e+00 1.661022376543209944e+00 1.621458815586419799e+00 1.551439043209876356e+00 1.587264178240740620e+00 1.530690104166666732e+00 1.510023630401234440e+00 1.509597318672839528e+00 1.499876060956790047e+00 1.507721354166666528e+00 1.524883294753086371e+00 1.537354841820987472e+00 1.555420524691358164e+00 1.570705536265432078e+00 1.598316454475308568e+00 1.629539448302468996e+00 1.659959008487654319e+00 1.680400752314814783e+00 1.700160108024691308e+00 1.703777006172839448e+00 1.677736786265432212e+00 1.601407214506172849e+00 1.522107928240740815e+00 1.471486786265432167e+00 1.438627507716049303e+00 1.421259645061728305e+00 1.408513213734567948e+00 1.422044753086419755e+00 1.446864872685185155e+00 1.469450231481481461e+00 1.488435570987654444e+00 1.511634837962962941e+00 1.539094328703703551e+00 1.573920235339506091e+00 1.608356481481481470e+00 1.492838059413580165e+00 1.511076871141975309e+00 1.572716531635802495e+00 1.603897569444444393e+00 1.556459780092592560e+00 1.476552372685185244e+00 1.406417341820987543e+00 1.371823398919753023e+00 1.361690779320987588e+00 1.355643807870370532e+00 1.363912519290123360e+00 1.377419945987654160e+00 1.392722800925925819e+00 1.409952256944444260e+00 1.429131944444444580e+00 1.461737075617283832e+00 1.493156828703703809e+00 1.536532600308641916e+00 1.577663001543209820e+00 1.610472608024691388e+00 1.638740354938271748e+00 1.651568287037036953e+00 1.607621045524691317e+00 1.516726948302469236e+00 1.422771026234567859e+00 1.362877121913580236e+00 1.339714023919753139e+00 1.325830922067901207e+00 1.320605227623456779e+00 1.333722511574074066e+00 1.351059992283950573e+00 1.420125385802469165e+00 1.414851466049382722e+00 1.454975887345679064e+00 1.492677951388888813e+00 1.521750578703703560e+00 1.553168402777777679e+00 1.581756847993827320e+00 1.612365451388888760e+00 1.616637249228394912e+00 1.571414930555555589e+00 1.483189139660493927e+00 1.417861689814814863e+00 1.377730516975308683e+00 1.352615258487654293e+00 1.338327546296296244e+00 1.347510127314814676e+00 1.369024884259259167e+00 1.379776234567901216e+00 1.402373649691357915e+00 1.421649305555555465e+00 1.449269386574074003e+00 1.472837094907407440e+00 1.515407021604938231e+00 1.553582658179012421e+00 1.584728973765431981e+00 1.605988136574074021e+00 1.612088638117283868e+00 1.572816840277777795e+00 1.479597800925926077e+00 1.401572627314814801e+00 1.355112364969135896e+00 1.397164351851851949e+00 1.385199652777777679e+00 1.406595293209876640e+00 1.419426601080246764e+00 1.431879340277777857e+00 1.438805459104938400e+00 1.449312789351851816e+00 1.468633294753086460e+00 1.495511188271605008e+00 1.530435956790123564e+00 1.547559317129629575e+00 1.573012152777777839e+00 1.585735918209876472e+00 1.591093749999999973e+00 1.598327546296296253e+00 1.577395351080246977e+00 1.501360435956790251e+00 1.425335648148148060e+00 1.363839699074074208e+00 1.339294945987654417e+00 1.329592978395061520e+00 1.323768325617284081e+00 1.333747106481481648e+00 1.349293981481481497e+00 1.358803047839506117e+00 1.367992380401234609e+00 1.378045428240740833e+00 1.403149112654320962e+00 1.439890528549382820e+00 1.482548225308641943e+00 1.513652102623456841e+00 1.407457079475308737e+00 1.425933159722222232e+00 1.488716242283950608e+00 1.504632523148148104e+00 1.456069155092592604e+00 1.383176118827160517e+00 1.340710841049382651e+00 1.323980034722222143e+00 1.313550347222222303e+00 1.324668209876543212e+00 1.342445987654321105e+00 1.356959876543209820e+00 1.363832465277777795e+00 1.373918788580246853e+00 1.394324363425925917e+00 1.423034818672839652e+00 1.460877218364197372e+00 1.491244212962963056e+00 1.552709780092592640e+00 1.573477527006172716e+00 1.590014467592592684e+00 1.582760416666666670e+00 1.531736593364197541e+00 1.438740837191357924e+00 1.370327449845679002e+00 1.327137345679012315e+00 1.296002121913580218e+00 1.285424864969135772e+00 1.284555844907407485e+00 1.294459876543209820e+00 1.355597993827160508e+00 1.357029320987654275e+00 1.383791473765432212e+00 1.392893036265432150e+00 1.415556520061728385e+00 1.433122588734567993e+00 1.469527391975308683e+00 1.504216820987654302e+00 1.518485725308642120e+00 1.534507619598765471e+00 1.540741222993827320e+00 1.545844907407407431e+00 1.519613233024691423e+00 1.443519000771604999e+00 1.362016782407407423e+00 1.308692129629629664e+00 1.286672453703703756e+00 1.269069733796296395e+00 1.265641396604938240e+00 1.265694444444444455e+00 1.278070505401234680e+00 1.289825906635802433e+00 1.301326678240740664e+00 1.316381655092592640e+00 1.340173611111111107e+00 1.371819540895061751e+00 1.407841917438271695e+00 1.450428240740740726e+00 1.478344425154320962e+00 1.503701292438271553e+00 1.519926697530864068e+00 1.383203125000000089e+00 1.410050636574073923e+00 1.469150752314814845e+00 1.459225983796296200e+00 1.381978684413580183e+00 1.320928819444444624e+00 1.282472993827160623e+00 1.271100501543209749e+00 1.265843942901234476e+00 1.275494791666666572e+00 1.287394386574074012e+00 1.295326003086419764e+00 1.302643229166666528e+00 1.312684220679012359e+00 1.330244984567901412e+00 1.362376543209876445e+00 1.396410590277777697e+00 1.437139756944444624e+00 1.471536458333333464e+00 1.500513117283950537e+00 1.519628182870370381e+00 1.533651620370370283e+00 1.542106963734567904e+00 1.543344907407407485e+00 1.501977237654321007e+00 1.425776427469135799e+00 1.366055652006172849e+00 1.325077642746913531e+00 1.301776620370370452e+00 1.298866222993827035e+00 1.306048418209876605e+00 1.346242283950617180e+00 1.353305362654320998e+00 1.390471643518518485e+00 1.412369309413580076e+00 1.432401138117283868e+00 1.457462866512345689e+00 1.481437114197530880e+00 1.512112750771605008e+00 1.522625868055555554e+00 1.524876543209876534e+00 1.535606192129629788e+00 1.540060281635802442e+00 1.542949942129629548e+00 1.546016589506172823e+00 1.536829668209876543e+00 1.473937596450617171e+00 1.386971450617283885e+00 1.312476851851851700e+00 1.296569251543209900e+00 1.288952064043209944e+00 1.305174093364197541e+00 1.327267071759259176e+00 1.349159432870370212e+00 1.358698881172839545e+00 1.380199652777777786e+00 1.402258873456790012e+00 1.437501446759259283e+00 1.476216724537037228e+00 1.510463445216049472e+00 1.537326871141975415e+00 1.414337866512345832e+00 1.437121431327160526e+00 1.513097993827160481e+00 1.567489872685185137e+00 1.591523919753086380e+00 1.565616319444444349e+00 1.495040509259259132e+00 1.422073688271604963e+00 1.373893229166666563e+00 1.350542052469135612e+00 1.342042824074074048e+00 1.349003665123456708e+00 1.367830343364197621e+00 1.391211902006172840e+00 1.415686728395061600e+00 1.432410783179012492e+00 1.449674479166666696e+00 1.480418595679012350e+00 1.517098283179012297e+00 1.558182388117284045e+00 1.589051408179012359e+00 1.603036265432098872e+00 1.612688560956790251e+00 1.616264467592592569e+00 1.624475308641975424e+00 1.624889564043209944e+00 1.615258005401234431e+00 1.541961323302469156e+00 1.460848765432098739e+00 1.407594039351851789e+00 1.386973861882716097e+00 1.411290509259259141e+00 1.403389274691357880e+00 1.444470968364197416e+00 1.475772087191357995e+00 1.487474440586419755e+00 1.492409336419753041e+00 1.505653935185185199e+00 1.534747299382716035e+00 1.565681905864197532e+00 1.594149787808641916e+00 1.612421392746913540e+00 1.629630111882716115e+00 1.632584394290123475e+00 1.640713734567901261e+00 1.640698302469135728e+00 1.607321084104938347e+00 1.510991994598765320e+00 1.427154706790123573e+00 1.371783854166666705e+00 1.347061631944444393e+00 1.337078510802469200e+00 1.335859857253086425e+00 1.355652006172839652e+00 1.368012635030864343e+00 1.375386766975308594e+00 1.385483699845678984e+00 1.394992283950617251e+00 1.423539737654321069e+00 1.465371817129629717e+00 1.516005979938271464e+00 1.554249131944444473e+00 1.440010609567901279e+00 1.456842689043209793e+00 1.523726369598765285e+00 1.545203028549382740e+00 1.482465277777777812e+00 1.393665123456790056e+00 1.337010030864197452e+00 1.305122010030864255e+00 1.296885127314814756e+00 1.295949556327160579e+00 1.299492669753086416e+00 1.311897183641975273e+00 1.319536072530864024e+00 1.327657214506172911e+00 1.342613811728395001e+00 1.368244116512345787e+00 1.400408468364197523e+00 1.471469425154320998e+00 1.516038773148148167e+00 1.539002700617283947e+00 1.563817515432098793e+00 1.581349344135802415e+00 1.578121624228395081e+00 1.518641493055555625e+00 1.409055266203703694e+00 1.332055844907407360e+00 1.280511188271604928e+00 1.257044753086419719e+00 1.251265914351851860e+00 1.245745563271605016e+00 1.345339023919752908e+00 1.348240740740740629e+00 1.369633487654321025e+00 1.383809799382716088e+00 1.396060956790123431e+00 1.419205729166666652e+00 1.459797935956790083e+00 1.481985435956790109e+00 1.512411747685185048e+00 1.524252025462963012e+00 1.532434413580247012e+00 1.532747878086419879e+00 1.542200520833333144e+00 1.533225308641975371e+00 1.468883584104938356e+00 1.383486689814814818e+00 1.327917631172839563e+00 1.296330054012345689e+00 1.280303337191357915e+00 1.264868827160493980e+00 1.274384645061728216e+00 1.292246334876543168e+00 1.303154899691358004e+00 1.303310667438271508e+00 1.316185860339506020e+00 1.336871624228395117e+00 1.367107445987654213e+00 1.405390625000000115e+00 1.444098668981481648e+00 1.478511284722222152e+00 1.502915702160493971e+00 1.382179301697531004e+00 1.400855516975308523e+00 1.436858603395061884e+00 1.400351562500000036e+00 1.328801118827160455e+00 1.283383487654320865e+00 1.260106577932098793e+00 1.257584394290123475e+00 1.265709876543209988e+00 1.273478009259259247e+00 1.299974440586419755e+00 1.316149209104938267e+00 1.319840374228395063e+00 1.337879050925925961e+00 1.358610146604938285e+00 1.381791570216049481e+00 1.426528742283950768e+00 1.463561439043209900e+00 1.497378954475308666e+00 1.509503761574074066e+00 1.523052662037037042e+00 1.524589120370370532e+00 1.516034432870370319e+00 1.454644579475308674e+00 1.370584008487654160e+00 1.313631847993827151e+00 1.286160300925925926e+00 1.272547743055555625e+00 1.260809220679012244e+00 1.265377121913580316e+00 1.286273630401234547e+00 1.325791859567901243e+00 1.335891685956789976e+00 1.355388213734567859e+00 1.377174961419753041e+00 1.405831886574074208e+00 1.436019483024691512e+00 1.468922164351851745e+00 1.480921103395061778e+00 1.485740740740740584e+00 1.511087962962962772e+00 1.518966049382715955e+00 1.518159722222222285e+00 1.504361496913580121e+00 1.443655478395061698e+00 1.367826967592592480e+00 1.321417341820987579e+00 1.275633680555555705e+00 1.271201292438271624e+00 1.272554012345679109e+00 1.286815200617283939e+00 1.299864004629629699e+00 1.309084201388888813e+00 1.319036458333333384e+00 1.340506365740740780e+00 1.362693865740740584e+00 1.400058352623456903e+00 1.434954668209876605e+00 1.466621817129629468e+00 1.497200520833333437e+00 1.502460455246913629e+00 1.380550250771604981e+00 1.400521315586419790e+00 1.444299768518518601e+00 1.415261381172839616e+00 1.336642071759259309e+00 1.284768036265432123e+00 1.260807291666666607e+00 1.255570505401234715e+00 1.244832175925925988e+00 1.252158564814814801e+00 1.261079282407407520e+00 1.273438464506172929e+00 1.282974054783950768e+00 1.289503279320987517e+00 1.302811053240740868e+00 1.329217785493827186e+00 1.348700810185185173e+00 1.380024594907407476e+00 1.416441936728394912e+00 1.441577449845679038e+00 1.462112268518518388e+00 1.477885320216049347e+00 1.486696084104938365e+00 1.488200231481481506e+00 1.473453896604938196e+00 1.402182195216049365e+00 1.330739293981481497e+00 1.292696277006172956e+00 1.260192418981481488e+00 1.256186824845678895e+00 1.257038001543209882e+00 1.319223090277777732e+00 1.318280285493827364e+00 1.344593460648148220e+00 1.354330632716049365e+00 1.362160493827160535e+00 1.391878375771604892e+00 1.420885416666666679e+00 1.446663290895061849e+00 1.469237075617284116e+00 1.483024691358024727e+00 1.490868537808641925e+00 1.488388310185185137e+00 1.483276909722222259e+00 1.459934413580247003e+00 1.399468074845679144e+00 1.331048418209876516e+00 1.297047646604938320e+00 1.280163483796296298e+00 1.270796682098765285e+00 1.279579957561728376e+00 1.294052854938271713e+00 1.304519193672839528e+00 1.316950231481481604e+00 1.316747202932098793e+00 1.335699266975308719e+00 1.366896701388888857e+00 1.395632233796296306e+00 1.440003375771605088e+00 1.468851273148148229e+00 1.494926215277777803e+00 1.509758873456790162e+00 1.364906925154321105e+00 1.379613233024691299e+00 1.384648437499999885e+00 1.337453221450617180e+00 1.275729648919753156e+00 1.255101755401234476e+00 1.242416570216049232e+00 1.231956500771604901e+00 1.234580439814814801e+00 1.236906828703703720e+00 1.249162326388888911e+00 1.262779706790123413e+00 1.266817611882716132e+00 1.280927854938271659e+00 1.305410397376543186e+00 1.363495852623456628e+00 1.391900077160493909e+00 1.418878279320987756e+00 1.440862268518518396e+00 1.465833333333333321e+00 1.483357445987654399e+00 1.488654031635802344e+00 1.472219810956790109e+00 1.408055073302469040e+00 1.324686535493827089e+00 1.261493537808642040e+00 1.228443287037036979e+00 1.213619309413580316e+00 1.208684413580246808e+00 1.361849922839506233e+00 1.473190104166666625e+00 1.550534818672839377e+00 1.579239969135802557e+00 1.607905574845678975e+00 1.623156828703703702e+00 1.646751060956790136e+00 1.670032310956790056e+00 1.692796103395061813e+00 1.713846450617283912e+00 1.717651427469135683e+00 1.725959201388888919e+00 1.727038966049382784e+00 1.730275366512345592e+00 1.735312500000000036e+00 1.692656732253086327e+00 1.604523533950617420e+00 1.524566454475308808e+00 1.482813464506172796e+00 1.460070891203703702e+00 1.436778549382716097e+00 1.439992766203703756e+00 1.454283854166666723e+00 1.475886863425925899e+00 1.488116319444444446e+00 1.501298707561728341e+00 1.535201581790123448e+00 1.569042245370370292e+00 1.612722318672839439e+00 1.663648244598765480e+00 1.692018229166666776e+00 1.726035397376543212e+00 1.615394000771604999e+00 1.631796392746913460e+00 1.664531732253086371e+00 1.726827256944444500e+00 1.745366030092592613e+00 1.725554108796296449e+00 1.649698591820987659e+00 1.581786747685185235e+00 1.534387538580247012e+00 1.506868730709876480e+00 1.499989872685185244e+00 1.505383873456790145e+00 1.521187789351851949e+00 1.551463638117283939e+00 1.567305652006173000e+00 1.586111111111111027e+00 1.611619405864197496e+00 1.657467689043209846e+00 1.691927565586419879e+00 1.738544077932098864e+00 1.766883680555555447e+00 1.803264853395061706e+00 1.815212191358024585e+00 1.826458815586419648e+00 1.818535879629629592e+00 1.820364101080246932e+00 1.791807484567901287e+00 1.721317997685185119e+00 1.645207851080246808e+00 1.601922743055555376e+00 1.581721161265432052e+00 1.639784915123456699e+00 1.629731385030864343e+00 1.634630111882716008e+00 1.654541859567901341e+00 1.665060281635802442e+00 1.680548804012345743e+00 1.704535108024691326e+00 1.743627025462962887e+00 1.782052951388888973e+00 1.809965760030864068e+00 1.822713155864197576e+00 1.838725887345679100e+00 1.842115644290123644e+00 1.841917438271604812e+00 1.746787712191357977e+00 1.652532310956790207e+00 1.593062307098765285e+00 1.551522472993827284e+00 1.529257812500000036e+00 1.525643325617283885e+00 1.534515335648148016e+00 1.559072627314814996e+00 1.575702160493827275e+00 1.595123456790123573e+00 1.612364004629629699e+00 1.650306712962962941e+00 1.696508969907407405e+00 1.743928433641975140e+00 1.791207561728394904e+00 1.827539062500000089e+00 1.713337673611111001e+00 1.738140914351851807e+00 1.747338445216049418e+00 1.728893711419753121e+00 1.634875096450617349e+00 1.563906250000000053e+00 1.518716242283950635e+00 1.493803047839506348e+00 1.493029513888888937e+00 1.494773823302468996e+00 1.508946277006172787e+00 1.528712866512345725e+00 1.552272376543209820e+00 1.567201485339505984e+00 1.587045717592592720e+00 1.618614969135802495e+00 1.657946084104938267e+00 1.708258584104938249e+00 1.751304494598765471e+00 1.792668788580246808e+00 1.821666666666666767e+00 1.842576678240740673e+00 1.853737943672839616e+00 1.815254629629629468e+00 1.714424672067901279e+00 1.623846450617283832e+00 1.555812114197530960e+00 1.516659915123456992e+00 1.496019000771604768e+00 1.501562982253086487e+00 1.507814911265432212e+00 1.659501832561728341e+00 1.645288869598765524e+00 1.646957947530864219e+00 1.667637442129629610e+00 1.702493730709876640e+00 1.731759741512345796e+00 1.772154224537036971e+00 1.802544367283950733e+00 1.819314718364197558e+00 1.832667341820987561e+00 1.834783950617283832e+00 1.837789834104938347e+00 1.824230324074074039e+00 1.745317322530864024e+00 1.652427179783950484e+00 1.580888792438271739e+00 1.549796971450617233e+00 1.528357445987654328e+00 1.526261574074073923e+00 1.543367573302469209e+00 1.556420717592592595e+00 1.570262345679012350e+00 1.582968267746913460e+00 1.608704668209876676e+00 1.638437982253086345e+00 1.680456211419752988e+00 1.728933256172839439e+00 1.780494791666666687e+00 1.820306230709876516e+00 1.850452353395061644e+00 1.865671778549382820e+00 1.734934413580246915e+00 1.735863233024691477e+00 1.676860050154320936e+00 1.593625578703703694e+00 1.535123456790123520e+00 1.504842785493827106e+00 1.497085262345679180e+00 1.498959297839506100e+00 1.511423128858024656e+00 1.536140528549382767e+00 1.548908661265432141e+00 1.557234760802469031e+00 1.570117669753086531e+00 1.587114197530864024e+00 1.672876639660493936e+00 1.713913966049382731e+00 1.762842881944444384e+00 1.808424961419752952e+00 1.845417148919753059e+00 1.861520543981481479e+00 1.859540895061728261e+00 1.785244984567901261e+00 1.680326967592592480e+00 1.591611207561728358e+00 1.535972704475308648e+00 1.507016300154320865e+00 1.492241994598765276e+00 1.509421296296296289e+00 1.518656442901234582e+00 1.530699749228394912e+00 1.676854745370370381e+00 1.656574074074073977e+00 1.660462480709876676e+00 1.699220679012345636e+00 1.734580439814814801e+00 1.772989486882716070e+00 1.810554108796296191e+00 1.830215084876543052e+00 1.849335455246913673e+00 1.857131558641975433e+00 1.815801022376543283e+00 1.709442997685185039e+00 1.607247781635802397e+00 1.537340374228394868e+00 1.496864390432098624e+00 1.475644772376543123e+00 1.476815682870370461e+00 1.489277102623456805e+00 1.504985050154320936e+00 1.520808256172839545e+00 1.529026813271604945e+00 1.551384548611111081e+00 1.592892554012345752e+00 1.643165027006172840e+00 1.687261284722222143e+00 1.730706500771604928e+00 1.783793885030864113e+00 1.812803337191357889e+00 1.841287133487654160e+00 1.839489293981481532e+00 1.790387249228394984e+00 1.675463445216049507e+00 1.614251060956790162e+00 1.553267746913580272e+00 1.518675733024691388e+00 1.501692708333333348e+00 1.499824942129629468e+00 1.513034818672839510e+00 1.524316165123456912e+00 1.529049961419753023e+00 1.547790316358024665e+00 1.570641878858024532e+00 1.599732831790123599e+00 1.641420235339505984e+00 1.701876446759259309e+00 1.739462287808641872e+00 1.788650655864197692e+00 1.817692418981481373e+00 1.832621527777777759e+00 1.832774884259259274e+00 1.794705343364197736e+00 1.694994695216049507e+00 1.604901138117283965e+00 1.532176408179012350e+00 1.488534432870370461e+00 1.467401620370370363e+00 1.454267457561728261e+00 1.462213541666666616e+00 1.478648244598765427e+00 1.491211902006172929e+00 1.506993152006172787e+00 1.531060956790123440e+00 1.627560281635802353e+00 1.631823881172839608e+00 1.667549189814814925e+00 1.704157986111111134e+00 1.742190875771604919e+00 1.778336226851851887e+00 1.791489197530864219e+00 1.812964891975308523e+00 1.785255594135802593e+00 1.687504340277777848e+00 1.588426408179012483e+00 1.524949845679012483e+00 1.485992959104938116e+00 1.480396894290123555e+00 1.494333526234567833e+00 1.512339409722222028e+00 1.516788194444444349e+00 1.523375289351851736e+00 1.544782021604938160e+00 1.569779128086419728e+00 1.609304591049382616e+00 1.658280285493827000e+00 1.703495852623456708e+00 1.743075810185185093e+00 1.779970100308642111e+00 1.805458140432098624e+00 1.785946180555555651e+00 1.707769579475308719e+00 1.602546296296296191e+00 1.529086612654320998e+00 1.611541280864197567e+00 1.573641493055555562e+00 1.552869405864197416e+00 1.559916087962962772e+00 1.584146894290123564e+00 1.591131365740740655e+00 1.593079668209876676e+00 1.606556230709876631e+00 1.628588927469135861e+00 1.667094425154320936e+00 1.703730227623456717e+00 1.731393229166666492e+00 1.765850694444444535e+00 1.782330729166666572e+00 1.788677662037037042e+00 1.784075520833333428e+00 1.766046006944444580e+00 1.687838059413580227e+00 1.582118537808641978e+00 1.507972125771604999e+00 1.461807002314814863e+00 1.430265239197530791e+00 1.420835262345679029e+00 1.422045235339506108e+00 1.430234857253086300e+00 1.444989872685185084e+00 1.472328317901234529e+00 1.497020158179012350e+00
