1.990154055748456869e+02 1.990115682870370222e+02 1.989764747299382748e+02 1.987662721836419735e+02 1.985219598765432067e+02 1.984644275655864192e+02 1.984505353009259352e+02 1.984105671296296407e+02 1.983716001157407334e+02 1.983620732060185219e+02 1.983882687114197552e+02 1.984147227044753095e+02 1.984309616126543290e+02 1.984706954089506326e+02 1.985494140625000057e+02 1.986109915123456631e+02 1.986679282407407356e+02 1.987418272569444468e+02 1.988219333526234607e+02 1.988362702546296248e+02 1.987680541087962922e+02 1.986992298418209941e+02 1.986373750964506257e+02 1.985778819444444423e+02 1.985305965470679155e+02 1.985018127893518738e+02 1.984741386959876479e+02 1.984584278549382645e+02 1.984543306327160508e+02 1.984516637731481410e+02 1.984494241898148061e+02 1.985760455246913807e+02 1.985765948109567773e+02 1.985584254436728600e+02 1.985641806520061721e+02 1.985918248456790138e+02 1.986364867862654364e+02 1.986997000385802608e+02 1.987633897569444343e+02 1.988268402777777624e+02 1.988810508294752992e+02 1.988988966049382725e+02 1.988680492862654319e+02 1.988156471836419712e+02 1.987615769675925890e+02 1.987395997299382771e+02 1.987318692129629767e+02 1.987327213541666424e+02 1.987458714313271457e+02 1.987715219907407231e+02 1.988061250964506144e+02 1.988325520833333258e+02 1.988621768904320959e+02 1.988974300733024734e+02 1.989381249999999852e+02 1.990035696373456631e+02 1.992826273148148175e+02 1.993311945408950407e+02 1.992867780671296316e+02 1.991781563464506064e+02 1.989700752314814736e+02 1.986703940007716085e+02 1.982027271412036953e+02 1.981672366898148141e+02 1.978937075617284052e+02 1.984297067901234755e+02 1.990529094328703650e+02 1.991309784915123373e+02 1.991949334490740853e+02 1.992811038773148198e+02 1.993787601273148198e+02 1.994802281057098696e+02 1.995786834490740773e+02 1.996663768325617241e+02 1.997446730324074053e+02 1.997942206790123407e+02 1.998377724729938336e+02 1.998808371913580402e+02 1.999032802854938211e+02 1.999428804976851950e+02 1.999797188464505950e+02 2.000244984567901270e+02 2.000760170717592814e+02 2.001096035879629653e+02 2.000855623070987690e+02 2.000206196952160269e+02 1.999452922453703536e+02 1.998718238811728440e+02 1.998148866705246860e+02 1.997751596257716074e+02 1.997511684992284131e+02 1.997408410493827091e+02 1.997335431134259238e+02 1.999434365354938450e+02 1.999415292245370495e+02 1.999023090277777612e+02 1.998777768132715948e+02 1.998683608217592678e+02 1.998783135609567978e+02 1.998986950231481501e+02 1.999265171682098696e+02 1.999530237268518533e+02 1.999800549768518465e+02 1.999683203124999977e+02 1.998868200231481467e+02 1.997842013888889028e+02 1.996783858989197427e+02 1.995823712384259352e+02 1.994996031057098662e+02 1.994270056905864124e+02 1.993716112075617275e+02 1.993275578703703843e+02 1.992725313464506200e+02 1.992275954861111131e+02 1.991841575038580174e+02 1.991575723379629608e+02 1.991456004050926083e+02 1.991366464120370381e+02 1.991456110146604885e+02 1.991599778163580083e+02 1.991784958526234561e+02 1.992074802276234493e+02 1.992208174189814827e+02 1.991746947337963149e+02 1.989266763117284142e+02 1.988712668788580231e+02 1.987638961226851961e+02 1.986714800347222081e+02 1.985848857060185253e+02 1.985054152199074053e+02 1.984476687885802448e+02 1.984043672839506200e+02 1.983716440007715960e+02 1.983494511959876547e+02 1.983266946373456676e+02 1.983348032407407402e+02 1.983344960455247019e+02 1.983457474922839481e+02 1.983800863233024643e+02 1.984359051890432113e+02 1.984900925925925890e+02 1.985488435570987633e+02 1.986090465856481728e+02 1.986091874035493845e+02 1.985434582368827137e+02 1.984350597993827137e+02 1.983348162615740762e+02 1.982510681905864374e+02 1.981656076388889005e+02 1.980997014853395228e+02 1.980464105902777874e+02 1.980041266396604840e+02 1.979696349344135626e+02 1.979448750964506303e+02 1.979329764660493822e+02 1.979443219521604931e+02 1.979727030285493754e+02 1.979732826967592700e+02 1.979918952546296396e+02 1.980238242669752822e+02 1.980747714120370233e+02 1.981307108410493640e+02 1.981908699845679109e+02 1.982317804783950521e+02 1.982487480709876593e+02 1.982170707947530843e+02 1.981455039544752879e+02 1.980669825424382680e+02 1.979976634837962877e+02 1.979376321373456733e+02 1.978794357638888926e+02 1.978412615740740819e+02 1.978095978009259284e+02 1.977792356288580322e+02 1.977562186535493822e+02 1.977420109953703786e+02 1.977379219714506178e+02 1.977449561149691419e+02 1.977600217013888653e+02 1.977869767554012412e+02 1.978244999035493947e+02 1.978637355324074178e+02 1.979104909336419666e+02 1.979604306520061812e+02 1.979956621334876559e+02 1.979725110918209907e+02 1.978228636188271707e+02 1.977923128858024597e+02 1.977253727816358264e+02 1.976690234375000159e+02 1.976080357831790195e+02 1.975549946952160383e+02 1.975143571566358105e+02 1.974918451003086375e+02 1.974650554591049172e+02 1.974414429012345522e+02 1.974287770061728224e+02 1.974292655285493936e+02 1.974491507523148357e+02 1.974732195216049320e+02 1.975027035108024904e+02 1.975521214313271514e+02 1.976010985725308728e+02 1.976556264467592712e+02 1.976980603780864101e+02 1.976968677662036953e+02 1.976395592206790184e+02 1.975553231095678939e+02 1.974651355131172750e+02 1.973840523726851757e+02 1.973124932484567751e+02 1.972483396026234459e+02 1.972042394868827273e+02 1.971645037615740819e+02 1.971227194251543153e+02 1.970916068672839572e+02 1.970669140624999898e+02 1.970337938850308603e+02 1.970532089120370358e+02 1.970703206983024529e+02 1.970970437885802369e+02 1.971312572337963047e+02 1.972563334297839504e+02 1.973298693094135672e+02 1.974104364390432238e+02 1.974796296296296418e+02 1.974851929012345693e+02 1.974332744984567967e+02 1.973622424768518329e+02 1.972869048996913648e+02 1.972192457561728531e+02 1.971666382137345579e+02 1.971201220100308831e+02 1.970886959876543187e+02 1.970597429591049377e+02 1.970498562885802301e+02 1.970322622492284097e+02 1.970272680362654398e+02 1.970396518132716039e+02 1.970657074652777681e+02 1.971037736304012356e+02 1.971591883680555384e+02 1.972226494984567751e+02 1.972974469521604988e+02 1.973699754050925890e+02 1.974555454282407538e+02 1.975384230324074224e+02 1.979798220486111120e+02 1.979864313271604885e+02 1.979124652777777840e+02 1.978240282600308717e+02 1.977393962191358128e+02 1.976768769290123373e+02 1.976188131751543153e+02 1.975716372492283881e+02 1.975526022376543267e+02 1.975551316550925947e+02 1.975621923225308478e+02 1.975789395254629710e+02 1.975950771604938154e+02 1.976300815007715812e+02 1.976719386574074235e+02 1.977300742669752935e+02 1.978078804976851757e+02 1.978868262924382861e+02 1.979948876350308637e+02 1.981115890239197483e+02 1.982350964506172772e+02 1.983756621334876797e+02 1.985278125000000102e+02 1.986662644675925833e+02 1.987467153742283870e+02 1.987562138310185276e+02 1.987259447337962968e+02 1.986950665509259295e+02 1.986655893132715960e+02 1.986371788194444434e+02 1.986165764853395217e+02 1.986995341435185196e+02 1.987143856095678984e+02 1.987019256365740603e+02 1.986856934799382657e+02 1.986688792438271776e+02 1.986766575038580243e+02 1.986835561342592769e+02 1.986982171103395274e+02 1.987313869598765450e+02 1.987703983410494004e+02 1.988189824459876434e+02 1.988797617669752924e+02 1.989356843171296418e+02 1.989906047453703763e+02 1.990092529899691272e+02 1.989690721450617445e+02 1.989042283950617502e+02 1.988418841628086398e+02 1.987956360918209953e+02 1.987395442708333348e+02 1.987004904513889016e+02 1.986673861882715926e+02 1.986501355131172772e+02 1.986334862075617309e+02 1.986208989197530741e+02 1.986174893904320982e+02 1.986235161072530957e+02 1.986414718364197540e+02 1.986712471064814736e+02 1.987276895254629778e+02 1.987827232831790241e+02 1.990867144097222194e+02 1.991300511188271400e+02 1.991731192129629733e+02 1.992134510030864192e+02 1.992282450810185424e+02 1.991141980131172886e+02 1.990397853973765336e+02 1.989770635609567933e+02 1.989283371913580254e+02 1.988750964506172636e+02 1.988319984567901031e+02 1.988172188464506007e+02 1.988042071759259386e+02 1.987924792631172863e+02 1.987836631944444434e+02 1.987920625964506200e+02 1.988091792052469202e+02 1.988442602237654455e+02 1.988959061535493902e+02 1.989538179976851779e+02 1.990220751350308603e+02 1.990996214313271651e+02 1.991748958333333519e+02 1.992554002700617275e+02 1.993367520254629710e+02 1.993681356095679007e+02 1.993236000192900974e+02 1.992569555362654512e+02 1.991855463927469145e+02 1.991329673032407186e+02 1.990090764853395058e+02 1.990102522183642009e+02 1.989717399691357969e+02 1.989549942129629585e+02 1.989308217592592598e+02 1.989221956983024597e+02 1.989259133873456733e+02 1.989350188078703638e+02 1.989559698109567876e+02 1.989817886766975050e+02 1.990343812692901224e+02 1.990976924189814952e+02 1.991882759452160485e+02 1.992672993827160326e+02 1.993446817129629665e+02 1.994360657793209839e+02 1.995349387538580288e+02 1.996061820023148243e+02 1.996005000964506166e+02 1.995528457754629414e+02 1.994956862461419860e+02 1.994567843364197586e+02 1.994073606288580436e+02 1.993756438078703752e+02 1.993539559220679109e+02 1.993414592978394921e+02 1.993421412037037044e+02 1.993483863811728440e+02 1.993510243055555691e+02 1.993724628665123362e+02 1.994062143132715903e+02 1.996581809413580402e+02 1.997033015046296214e+02 1.997356693672839469e+02 1.997868340084876593e+02 1.998406708140431931e+02 1.999202970679012310e+02 1.999962967785493788e+02 2.000486540316358059e+02 2.000438667052468986e+02 1.999885831404320982e+02 1.999264347029320845e+02 1.998613652584876377e+02 1.998086443865740875e+02 1.997711448688271503e+02 1.997410995370370586e+02 1.997261516203703593e+02 1.997167751736110972e+02 1.996971397569444662e+02 1.996898992091049365e+02 1.996885691550926083e+02 1.997014081790123612e+02 1.997268171296296373e+02 1.997634321952160406e+02 1.998116719714506360e+02 1.998571074459876797e+02 1.999235884452160406e+02 1.999794777199074076e+02 2.000252922453703661e+02 2.000052165316357957e+02 1.999309321952160587e+02 1.998433106674382600e+02 1.996606274112654376e+02 1.996499551504629721e+02 1.996068098958333223e+02 1.995659129050926026e+02 1.995169362461419666e+02 1.995053226273148255e+02 1.994866497878086307e+02 1.994929933449074042e+02 1.995053047839506064e+02 1.995283709490740875e+02 1.995673288001543426e+02 1.996196923225308524e+02 1.996762408371913580e+02 1.997477189429012299e+02 1.998204726080246871e+02 1.998876157407407277e+02 1.999242804783950760e+02 1.998988213734567978e+02 1.998174165702160678e+02 1.997301702353395001e+02 1.996466160300925878e+02 1.995741637731481433e+02 1.995071908757716130e+02 1.994544555362654421e+02 1.994178096064814838e+02 1.993956553819444366e+02 1.993782277199074144e+02 1.993763512731481455e+02 1.993737837577160406e+02 1.993936983989197529e+02 1.995549238040123612e+02 1.995906269290123305e+02 1.996311718750000068e+02 1.996746706211419564e+02 1.997328867669752981e+02 1.998048750964506155e+02 1.998897241512345602e+02 1.999578067129629630e+02 1.999674310378086375e+02 1.999088189621913614e+02 1.998302184606481262e+02 1.997546899112654160e+02 1.996908521412036919e+02 1.996280328896604885e+02 1.995824971064814690e+02 1.995521961805555691e+02 1.995229952739197472e+02 1.995123640046296316e+02 1.995066005979938097e+02 1.995015972222222160e+02 1.995059456983024688e+02 1.995331086033950498e+02 1.995802338927469179e+02 1.996353877314814724e+02 1.997084312307098912e+02 1.998022019675925947e+02 1.999001567322530946e+02 1.999998823302469191e+02 2.000977203896605090e+02 2.001433386381172852e+02 2.001096884645061778e+02 2.000052850115740739e+02 2.000033154899691397e+02 1.999590986689814827e+02 1.999130753279321198e+02 1.998772289737654262e+02 1.998533810763888710e+02 1.998430304783950646e+02 1.998423099922839583e+02 1.998322342785493788e+02 1.998331153549382861e+02 1.998458844521605045e+02 1.998653496334876536e+02 1.999035464891975096e+02 1.999493701774691488e+02 2.000018258101851814e+02 2.000649884259259181e+02 2.001437789351851961e+02 2.002322468171296350e+02 2.003055806327160440e+02 2.003051784336419701e+02 2.002494020061728293e+02 2.001717394868827000e+02 2.001079161844135683e+02 2.000637249228394978e+02 2.000318282214506098e+02 2.000053814621913659e+02 2.000054523533950714e+02 2.000056428433641997e+02 2.000054176311728327e+02 2.000129827353395058e+02 2.000355271026234618e+02 2.002037167245370313e+02 2.002361646412036862e+02 2.002643971836419610e+02 2.003277329282407493e+02 2.003797998649691579e+02 2.004379562114197597e+02 2.004772140239197427e+02 2.004459312307099026e+02 2.003693860918209850e+02 2.002709037422839629e+02 2.001781891396605033e+02 2.000881057098765439e+02 2.000054542824074133e+02 1.999348514660493947e+02 1.998857007137345647e+02 1.998453216628086295e+02 1.998027146026234391e+02 1.997621923225308649e+02 1.997388512731481569e+02 1.997298292824074224e+02 1.997343725887345727e+02 1.997664380787036862e+02 1.997921706211419917e+02 1.998383998842592462e+02 1.998961959876543233e+02 1.999588893711419928e+02 2.000072945601851870e+02 2.000270370370370472e+02 1.999647530864197336e+02 1.998708314043209953e+02 1.996196064814814690e+02 1.995962683256172738e+02 1.995242809606481558e+02 1.994548143325617389e+02 1.993958965084876525e+02 1.993592086226851734e+02 1.993203264853395069e+02 1.992971035879629653e+02 1.992879359567901076e+02 1.992905970293209919e+02 1.992928973765432090e+02 1.993318933256172727e+02 1.993835165895061721e+02 1.994470707947530741e+02 1.995221609760802721e+02 1.996043894675925969e+02 1.996839395254629608e+02 1.997707600308642100e+02 1.998688228202160531e+02 1.999437032214506189e+02 1.999368865740740659e+02 1.998716700424382680e+02 1.997976022376543312e+02 1.997403911072530889e+02 1.996821657986111234e+02 1.996335276813271662e+02 1.995986009837963024e+02 1.995750183256172932e+02 1.995546503665123623e+02 1.995342611882715858e+02 1.995242558834876547e+02 1.995667173032407504e+02 1.995923895640432022e+02 1.996015480324074076e+02 1.996254046103395012e+02 1.996611791087962899e+02 1.997134432870370233e+02 1.997690485146604829e+02 1.998370365547839640e+02 1.999292684220679064e+02 1.999549146412036862e+02 1.999109191743827125e+02 1.998390697337962933e+02 1.997736265432098719e+02 1.997149782986111290e+02 1.996621436149691533e+02 1.996209071180555554e+02 1.996042028356481524e+02 1.995909273726852007e+02 1.995915374228395081e+02 1.995906515239197745e+02 1.995935768711419769e+02 1.996078206983024756e+02 1.996393277391975403e+02 1.997007055362654455e+02 1.997650294174382850e+02 1.998413493441358071e+02 1.999352777777777703e+02 2.000274807098765564e+02 2.001301499807098878e+02 2.001832156635802562e+02 2.001535392554012276e+02 2.000151832561728327e+02 1.999942578124999955e+02 1.998803062307098912e+02 1.998193262924382907e+02 1.997797767168209759e+02 1.997595240162037271e+02 1.997447569444444468e+02 1.997366483410493743e+02 1.997284871720679007e+02 1.997455213155864158e+02 1.997667780671296214e+02 1.998054812885802676e+02 1.998694936342592712e+02 1.999267197145061914e+02 1.999970249807098810e+02 2.000812490354938404e+02 2.001640962577160678e+02 2.002192066936728452e+02 2.002099074074074281e+02 2.001388705632715812e+02 2.000489631558642145e+02 1.999620529513888698e+02 1.998862215470678905e+02 1.998071580825617275e+02 1.997503448109567898e+02 1.997085218942901292e+02 1.996887437307098878e+02 1.996773823302468998e+02 1.996570235339506212e+02 1.996543489583333155e+02 1.997188416280864374e+02 1.997582614776234493e+02 1.997802907986111052e+02 1.998176658950617366e+02 1.998587384259259352e+02 1.999144931520061732e+02 1.999769574652777919e+02 2.000428940007716108e+02 2.000981283757716085e+02 2.000813922646605079e+02 2.000092973572530752e+02 1.999011969521604897e+02 1.998167915702160542e+02 1.997396657986110995e+02 1.996514255401234550e+02 1.995810648148147948e+02 1.995220100308642088e+02 1.994788450038580265e+02 1.994460527584876388e+02 1.994300159143518272e+02 1.994278158757715858e+02 1.994319135802469134e+02 1.994339568865740659e+02 1.994425173611111290e+02 1.994586834490740728e+02 1.994831018518518420e+02 1.995165461033950578e+02 1.995458540702160519e+02 1.995826494984567887e+02 1.996075863233024847e+02 1.995801475694444491e+02 1.993235739776234539e+02 1.992926263503086375e+02 1.991997400655864112e+02 1.990953187692901167e+02 1.989878149112654455e+02 1.988911588541666617e+02 1.988024112654320845e+02 1.987235614390432090e+02 1.986446556712962774e+02 1.985824869791666742e+02 1.985058072916666845e+02 1.984532740162037214e+02 1.984233863811728327e+02 1.984036014660493947e+02 1.983801692708333348e+02 1.983736603009259341e+02 1.983615523726851961e+02 1.983577006172839674e+02 1.983783000578703763e+02 1.983988069058642054e+02 1.984056394675926072e+02 1.983855642361110938e+02 1.983070418595678746e+02 1.982026842206790036e+02 1.981061019483024950e+02 1.980288102816357991e+02 1.979568113425926015e+02 1.978966763117284131e+02 1.978579494598765507e+02 1.978247381365740694e+02 1.978090928819444514e+02 1.977536299189814883e+02 1.977708810763888891e+02 1.977909032600308592e+02 1.978115128279321198e+02 1.978522771990740807e+02 1.979023085455246758e+02 1.979575988618827012e+02 1.980164805169752924e+02 1.980728906249999852e+02 1.980920288387345636e+02 1.980395283564814690e+02 1.979508593749999932e+02 1.978704947916666583e+02 1.977933222415123566e+02 1.977223186728394921e+02 1.976714964313271707e+02 1.976194912229938154e+02 1.976034717399691374e+02 1.975832118055555497e+02 1.975668909143518590e+02 1.975621166087962877e+02 1.975724054783950407e+02 1.975885431134259136e+02 1.976182634066358048e+02 1.976642703510802619e+02 1.977201837384259306e+02 1.977788512731481489e+02 1.978480738811728372e+02 1.979259326774691488e+02 1.979918778935185060e+02 1.981037977430555657e+02 1.980486752507715948e+02 1.979248374807098969e+02 1.978026726466049183e+02 1.977126977237654160e+02 1.976171961805555384e+02 1.975252613811728395e+02 1.974499233217592575e+02 1.973979894868827216e+02 1.973748582175925890e+02 1.973516145833333155e+02 1.973387225115740762e+02 1.973507426697530889e+02 1.973711897183641781e+02 1.974113122106481626e+02 1.974680396412037169e+02 1.975175337577160519e+02 1.975727522183642009e+02 1.976354996141975278e+02 1.977062032214506360e+02 1.977708839699074019e+02 1.977882142168209896e+02 1.977607735339506121e+02 1.976910923032407652e+02 1.976122019675925969e+02 1.975359616126543187e+02 1.974708830054012481e+02 1.974301683063271469e+02 1.973994290123456778e+02 1.973841536458333223e+02 1.973733801118827103e+02 1.973317568479938302e+02 1.973374527391975164e+02 1.973165557484568069e+02 1.973248924575617309e+02 1.973301007908950453e+02 1.973459688464506314e+02 1.973777502893518374e+02 1.974224483989197552e+02 1.974614385609567933e+02 1.974997921489197381e+02 1.975203351658950623e+02 1.974842838541666481e+02 1.973927517361111086e+02 1.973062581983024586e+02 1.972333024691358219e+02 1.971758830054012321e+02 1.971076774691357798e+02 1.970574223572530741e+02 1.970326856674382725e+02 1.970063724922839583e+02 1.969792771026234561e+02 1.969727391975308421e+02 1.969730849729938313e+02 1.969814048032407356e+02 1.970077136381172807e+02 1.970435927854938143e+02 1.970999946952160542e+02 1.971551480516975516e+02 1.972210339506172829e+02 1.972725805362654512e+02 1.972764038387345522e+02 1.971217390046296316e+02 1.970003858024691397e+02 1.969191174768518522e+02 1.968449927662037169e+02 1.967805705054012435e+02 1.967412765239197654e+02 1.967061709104938245e+02 1.966797477816357969e+02 1.966619637345679052e+02 1.966541160300925810e+02 1.966634842785493902e+02 1.966838937114197279e+02 1.967256283757716062e+02 1.967728361304012310e+02 1.968271537422839685e+02 1.968920510223765348e+02 1.969554354745370404e+02 1.970165899884259204e+02 1.970295958719135854e+02 1.969861964699074122e+02 1.969047916666666538e+02 1.968247738233024791e+02 1.967584346064814724e+02 1.966915890239197324e+02 1.966338459683641986e+02 1.965870457175925878e+02 1.965658285108024756e+02 1.965469632523148107e+02 1.965418918788580243e+02 1.965345013503086307e+02 1.966127989969135683e+02 1.966467375578703809e+02 1.966768325617283892e+02 1.967257233796296418e+02 1.967808072916666617e+02 1.968457470100308626e+02 1.969133125964505950e+02 1.969836140046296293e+02 1.970594164737654523e+02 1.971211800733024688e+02 1.971108685378086420e+02 1.970510739776234459e+02 1.969723177083333212e+02 1.969012041859567717e+02 1.968352840470679155e+02 1.967659032600308535e+02 1.967158593749999795e+02 1.966873500192901076e+02 1.966695929783950874e+02 1.966544646990740546e+02 1.966615682870370279e+02 1.966739520640432204e+02 1.966978727816357946e+02 1.967294092399691579e+02 1.967816734182098912e+02 1.968513088348765336e+02 1.969222092013888812e+02 1.969884321952160633e+02 1.970581819058641884e+02 1.971507614776234618e+02 1.972195008680555475e+02 1.976772516396604829e+02 1.976880208333333258e+02 1.976113773148148312e+02 1.975033743248456801e+02 1.973932238618827171e+02 1.972910522762345522e+02 1.971995770640432113e+02 1.971108241705246940e+02 1.970501721643518636e+02 1.970065523726851779e+02 1.969803004436728600e+02 1.969546556712963081e+02 1.969424257330246917e+02 1.969381249999999852e+02 1.969520490933641952e+02 1.969728486689814986e+02 1.970188064236111245e+02 1.970743103780864374e+02 1.971319970100308581e+02 1.972019656635802676e+02 1.972779224537036953e+02 1.973536337770061664e+02 1.974319217785493947e+02 1.975074918016975403e+02 1.975774995177469293e+02 1.975888025655864055e+02 1.975368856095678893e+02 1.974567177854938222e+02 1.973669169560185424e+02 1.973012012924382645e+02 1.972402681327160678e+02 1.970597926311728543e+02 1.970394685570987576e+02 1.970247477816357957e+02 1.970129128086419712e+02 1.970076191165123305e+02 1.970239650848765507e+02 1.970468451003086443e+02 1.970823620756172829e+02 1.971407952353395103e+02 1.971967640817901213e+02 1.972691362847222081e+02 1.973523668981481478e+02 1.974434220679012526e+02 1.975452729552469293e+02 1.976634085648148300e+02 1.977826056134259147e+02 1.978663956404321027e+02 1.978565108989197654e+02 1.977991999421296327e+02 1.977351215277777783e+02 1.976843793402777862e+02 1.976436689814814827e+02 1.976091685956789945e+02 1.975966092785493800e+02 1.975917727623456983e+02 1.975985165895061755e+02 1.975918407600308626e+02 1.975964940200617264e+02 1.976177724729938348e+02 1.976455111882715983e+02 1.978359688464506121e+02 1.978712504822530889e+02 1.976771387924382850e+02 1.976699165702160315e+02 1.976527199074074019e+02
3.106976466049382779e+01 3.108184076003086815e+01 3.111400655864197518e+01 3.115582417052469566e+01 3.103011574074074375e+01 3.095504292052469353e+01 3.094993248456790269e+01 3.092149064429012029e+01 3.088299286265432286e+01 3.087188416280864089e+01 3.090689525462963161e+01 3.096132957175926137e+01 3.102188126929011958e+01 3.111249324845678998e+01 3.124317949459876687e+01 3.138614679783950834e+01 3.152012297453703482e+01 3.167926745756173190e+01 3.184624373070987602e+01 3.192127845293209631e+01 3.186340711805555870e+01 3.174877411265432059e+01 3.163024643132715852e+01 3.150626880787036654e+01 3.139763117283950677e+01 3.131896894290123257e+01 3.125742091049382410e+01 3.121871527777777899e+01 3.119348090277777530e+01 3.119469762731481310e+01 3.117978491512345940e+01 3.102921682098765643e+01 3.106233940972222030e+01 3.113362750771605292e+01 3.125526379243827435e+01 3.141251302083333030e+01 3.157788676697530761e+01 3.172994695216048910e+01 3.188140769675925768e+01 3.204542052469135882e+01 3.221511332947530803e+01 3.230731819058642174e+01 3.227830391589505865e+01 3.220075810185185361e+01 3.211368103780863947e+01 3.204293161651234101e+01 3.200071711033950805e+01 3.196710792824073977e+01 3.195064187885802554e+01 3.196881172839506036e+01 3.200807146990740648e+01 3.203674816743826881e+01 3.207951195987654103e+01 3.214420138888889511e+01 3.223255835262345670e+01 3.235093942901234243e+01 3.285347849151234101e+01 3.296664351851851649e+01 3.287328221450616894e+01 3.263781491126542988e+01 3.225502266589506206e+01 3.178865065586419547e+01 3.089804446373457125e+01 3.081404513888888630e+01 3.041573832947531031e+01 3.140066792052468969e+01 3.249779176311728435e+01 3.276193287037036583e+01 3.296148437499999773e+01 3.315623167438271679e+01 3.334105999228395234e+01 3.355307002314815179e+01 3.376183063271604823e+01 3.395438753858024938e+01 3.412218267746913369e+01 3.425474778163579970e+01 3.435819106867283779e+01 3.444377845293210072e+01 3.453818094135802852e+01 3.463461660879629989e+01 3.475380979938271508e+01 3.487314043209876502e+01 3.499787905092592410e+01 3.510102961033950209e+01 3.511887104552469197e+01 3.502831597222222371e+01 3.489951919367283750e+01 3.476279658564814667e+01 3.465109664351851393e+01 3.454915750385802653e+01 3.448847945601852416e+01 3.445248312114197375e+01 3.443177854938271309e+01 3.434345437885802710e+01 3.434389660493827279e+01 3.432689429012345528e+01 3.433292872299382736e+01 3.437925106095678984e+01 3.442673852237653875e+01 3.449925395447530718e+01 3.459556423611110887e+01 3.468053626543209589e+01 3.477231095679012185e+01 3.476997395833333115e+01 3.467261670524690942e+01 3.448032648533950351e+01 3.426662856867284290e+01 3.405875337577160167e+01 3.388767554012345329e+01 3.373217399691358054e+01 3.359371479552469708e+01 3.347111304012345556e+01 3.336340567129629875e+01 3.325491898148148096e+01 3.317345148533950550e+01 3.311572386188272077e+01 3.307479311342592609e+01 3.306771749614197375e+01 3.308201340663580226e+01 3.311396267361111256e+01 3.317400462962963559e+01 3.324431568287037209e+01 3.328614293981481609e+01 3.322683063271604453e+01 3.259276765046296731e+01 3.250785638503086261e+01 3.230261718749999744e+01 3.212307532793209930e+01 3.194505063657407362e+01 3.179127363040123555e+01 3.167437934027777757e+01 3.158098138503086005e+01 3.148656539351851791e+01 3.140578462577160579e+01 3.135977285879629761e+01 3.133134982638888744e+01 3.133669945987654160e+01 3.136255111882715951e+01 3.142323350694444173e+01 3.150022135416666558e+01 3.159933690200617207e+01 3.170811921296296632e+01 3.181334828317901042e+01 3.181924720293210029e+01 3.170082272376543386e+01 3.151594569830246684e+01 3.131969473379629321e+01 3.114958188657407590e+01 3.097436101466049507e+01 3.081835262345678927e+01 3.070332658179011887e+01 3.061458478009259565e+01 3.053931616512345570e+01 3.049078848379629392e+01 3.044315248842593036e+01 3.022165943287037138e+01 3.028109953703703994e+01 3.035321518132716179e+01 3.044029176311728691e+01 3.054530767746913256e+01 3.065366512345679340e+01 3.079461564429012554e+01 3.095453173225308774e+01 3.109983989197530718e+01 3.117306327160493851e+01 3.112668692129629733e+01 3.100780044367283850e+01 3.087077449845678601e+01 3.074294945987654160e+01 3.062734037422839251e+01 3.052264756944444457e+01 3.043376060956789786e+01 3.036706790123457012e+01 3.031219618055555642e+01 3.025651523919752961e+01 3.022225067515432073e+01 3.021172984182098631e+01 3.021692177854938066e+01 3.025852092978394836e+01 3.031945698302469339e+01 3.040728250385802411e+01 3.050162712191358239e+01 3.062014564043209930e+01 3.074177372685185006e+01 3.082262297453704036e+01 3.081335937499999744e+01 3.052501929012345983e+01 3.046834249614197887e+01 3.035134789737654160e+01 3.023986930941357798e+01 3.012195939429012270e+01 3.003286699459876630e+01 2.996582851080247067e+01 2.991905815972222271e+01 2.987516444830247053e+01 2.984599440586419661e+01 2.982384211033950550e+01 2.983038483796296347e+01 2.986099729938271707e+01 2.991288580246913753e+01 2.997954619984567870e+01 3.006113667052468941e+01 3.015294319058642003e+01 3.027558159722222086e+01 3.038466435185185333e+01 3.040912519290123583e+01 3.031928867669753203e+01 3.016337625385802568e+01 2.999246479552469324e+01 2.982526427469135655e+01 2.967077208719135584e+01 2.952423755787037152e+01 2.939673852237654472e+01 2.931294849537037095e+01 2.923853153935185389e+01 2.918223379629629477e+01 2.912920428240740733e+01 2.887149884259259380e+01 2.893273871527777530e+01 2.899160204475308689e+01 2.907939670138888744e+01 2.918731240354938450e+01 2.944121720679012455e+01 2.958022376543209830e+01 2.974888020833333613e+01 2.989570071373456628e+01 2.992562548225308561e+01 2.983379967206790084e+01 2.968849778163579956e+01 2.953046440972222086e+01 2.938243682484567998e+01 2.922487075617284091e+01 2.909510320216049450e+01 2.899701099537037052e+01 2.892763744212962962e+01 2.886665750385802554e+01 2.882213204089505965e+01 2.878963975694444244e+01 2.877927806712962777e+01 2.880517939814814810e+01 2.885762393904320788e+01 2.895194974922839393e+01 2.905932050540123512e+01 2.917804012345678899e+01 2.931257185570987644e+01 2.944617573302469182e+01 2.961127989969135754e+01 3.027890866126543301e+01 3.030813416280864203e+01 3.021766975308641889e+01 3.005206934799382879e+01 2.986781973379629562e+01 2.972991271219135712e+01 2.959869357638888943e+01 2.949197386188271608e+01 2.942005883487654216e+01 2.937205922067901298e+01 2.938139419367283622e+01 2.937447723765432173e+01 2.939069830246913639e+01 2.941529224537037024e+01 2.948811149691357869e+01 2.957719039351851720e+01 2.968950327932098432e+01 2.983334924768518803e+01 2.999285059799382580e+01 3.018298128858024754e+01 3.038144724151234399e+01 3.062435329861110844e+01 3.090798080632715994e+01 3.116991319444444386e+01 3.132248505015432016e+01 3.133301745756172707e+01 3.126623553240741060e+01 3.119061246141975374e+01 3.112090374228395007e+01 3.106370322145061635e+01 3.099978925540123242e+01 3.085933159722222285e+01 3.088935667438271793e+01 3.090889612268518505e+01 3.091825954861111114e+01 3.093600935570987787e+01 3.095240596064814653e+01 3.099800250771604482e+01 3.107173177083333471e+01 3.116475019290123427e+01 3.127778356481481481e+01 3.140746045524691255e+01 3.155240403163579899e+01 3.171720920138888999e+01 3.187218894675926251e+01 3.195741271219135982e+01 3.190080246913580453e+01 3.179977237654320987e+01 3.166982253086419874e+01 3.155440827546296489e+01 3.144397569444444684e+01 3.135148823302469268e+01 3.129565297067901142e+01 3.124298852237654245e+01 3.120900800540123399e+01 3.118237991898148209e+01 3.117119068287037464e+01 3.117647135416666870e+01 3.121692226080246613e+01 3.128366801697530875e+01 3.137987316743827293e+01 3.149894820601851464e+01 3.203057532793209816e+01 3.212272183641974976e+01 3.223394772376543216e+01 3.237218460648148266e+01 3.244854021990740733e+01 3.226741849922839833e+01 3.211444299768518107e+01 3.194690972222221959e+01 3.180811921296296418e+01 3.167999855324073977e+01 3.156495804398148053e+01 3.149164592978395305e+01 3.144717592592592226e+01 3.139115162037036910e+01 3.136396797839506334e+01 3.136831211419753274e+01 3.139135175540123512e+01 3.144272472993826995e+01 3.153070216049382779e+01 3.164605951003086304e+01 3.177486496913580183e+01 3.191828076774691780e+01 3.207068383487654017e+01 3.225593653549383077e+01 3.243522135416666430e+01 3.253503809799382651e+01 3.248380160108024484e+01 3.234546006944444940e+01 3.220348234953704036e+01 3.205853298611111057e+01 3.146156153549382495e+01 3.146246576003086304e+01 3.142834442515431803e+01 3.140173755787037280e+01 3.138929542824074304e+01 3.138622444058642103e+01 3.138860194830246542e+01 3.142368007330246726e+01 3.148394772376543216e+01 3.156157359182098787e+01 3.167004292052469339e+01 3.180827305169753316e+01 3.197399064429012583e+01 3.214727719907406822e+01 3.234891300154320959e+01 3.255932195216049507e+01 3.278991801697530661e+01 3.296947145061728435e+01 3.299311583719135399e+01 3.290265914351851251e+01 3.276705680941358168e+01 3.266085744598765928e+01 3.255531249999999943e+01 3.246296151620370551e+01 3.239379484953703781e+01 3.235647135416666487e+01 3.235266203703703525e+01 3.235751109182098872e+01 3.235007378472222683e+01 3.237464891975308490e+01 3.243114342206789757e+01 3.270508777006172352e+01 3.281276861496913710e+01 3.293266444830246797e+01 3.306842737268518562e+01 3.322885464891975005e+01 3.340243586033950862e+01 3.357568962191357542e+01 3.371043016975308149e+01 3.373852237654320874e+01 3.365626060956790155e+01 3.352456114969135825e+01 3.341059799382716022e+01 3.330531684027777573e+01 3.321234230324073877e+01 3.314669994212962933e+01 3.311541570216049024e+01 3.309334731867284063e+01 3.307050636574074076e+01 3.306716338734567984e+01 3.306249614197530917e+01 3.307588541666667226e+01 3.312625916280863692e+01 3.320012683256172892e+01 3.329521797839506547e+01 3.339676601080247309e+01 3.351160011574074105e+01 3.366536168981480870e+01 3.378017119984567529e+01 3.379195216049382822e+01 3.367538676697530775e+01 3.351259018132716250e+01 3.289759741512345670e+01 3.287956404320987502e+01 3.282282889660493197e+01 3.276057532793210214e+01 3.271945408950617207e+01 3.269840518904320703e+01 3.267947627314814696e+01 3.268640142746913568e+01 3.270058883101852132e+01 3.274668065200617662e+01 3.282255160108024938e+01 3.291787422839506405e+01 3.304493344907407248e+01 3.319505787037036981e+01 3.334795910493826909e+01 3.351773341049382537e+01 3.363719376929012839e+01 3.363282841435185588e+01 3.349271604938271452e+01 3.329209442515432471e+01 3.310885271990740364e+01 3.295835021219135541e+01 3.279863763503086460e+01 3.266599922839505865e+01 3.258900221836420030e+01 3.253628616898148351e+01 3.248882571373457040e+01 3.246379099151234726e+01 3.245311294367283494e+01 3.246997299382715596e+01 3.251787326388888744e+01 3.260968171296296703e+01 3.272952160493827023e+01 3.286823688271604738e+01 3.301856047453703269e+01 3.319204475308642088e+01 3.338224778163580453e+01 3.355398437499999886e+01 3.360101128472221887e+01 3.348534770447530917e+01 3.332244550540123385e+01 3.313695119598765615e+01 3.297989438657407391e+01 3.282039737654321243e+01 3.268185136959876758e+01 3.259635271990740790e+01 3.253173562885802994e+01 3.247979070216049280e+01 3.244749469521605079e+01 3.242214457947530803e+01 3.243424286265432244e+01 3.246953125000000284e+01 3.256579137731481666e+01 3.268638840663579970e+01 3.282119984567901128e+01 3.298326485339506320e+01 3.315840374228395149e+01 3.335201678240740364e+01 3.356211226851851848e+01 3.366848765432099100e+01 3.361902343749999744e+01 3.322345052083333172e+01 3.318998601466049791e+01 3.310699363425926123e+01 3.301852816358024256e+01 3.293019917052469481e+01 3.286483265817901156e+01 3.283807484567901014e+01 3.281540412808642060e+01 3.279787856867284290e+01 3.278875868055555287e+01 3.279698736496913369e+01 3.284237316743827506e+01 3.290733506944444287e+01 3.298485918209876644e+01 3.309446518132715909e+01 3.322841579861110972e+01 3.337072964891975602e+01 3.354776572145062374e+01 3.370142843364197915e+01 3.374008487654320732e+01 3.366019048996913909e+01 3.351567949459876417e+01 3.337807146990740392e+01 3.326697627314814554e+01 3.318276282793210186e+01 3.311974585262345983e+01 3.308541329089506178e+01 3.307082513503085863e+01 3.306347897376542733e+01 3.306041377314814866e+01 3.307515239197530832e+01 3.311530767746913995e+01 3.319757040895061806e+01 3.329645013503086659e+01 3.352416039737654785e+01 3.365722077546296731e+01 3.382268277391975886e+01 3.394361641589505751e+01 3.394268084490740733e+01 3.379379147376543102e+01 3.359480324074073820e+01 3.340248408564814753e+01 3.322060136959876786e+01 3.304047791280864743e+01 3.290401620370370495e+01 3.279843219521605135e+01 3.271801263503085977e+01 3.263848813657406822e+01 3.257150848765432016e+01 3.253365740740740364e+01 3.252471354166667084e+01 3.255495707947530803e+01 3.261467737268518619e+01 3.269500434027778368e+01 3.278900366512345244e+01 3.291313753858025137e+01 3.306856626157406964e+01 3.321393325617284376e+01 3.327344762731481609e+01 3.320102671682099071e+01 3.302428192515431959e+01 3.226097173996913625e+01 3.221795765817901014e+01 3.211620949074073650e+01 3.199611496913580311e+01 3.189581163194444358e+01 3.182175877700617406e+01 3.176786795910493666e+01 3.172367525077160266e+01 3.170901379243827023e+01 3.171037374614197191e+01 3.173325038580246726e+01 3.179815923996913440e+01 3.190268614969135541e+01 3.203358555169752719e+01 3.217449315200617121e+01 3.234530960648147868e+01 3.252803722993827051e+01 3.272719810956790099e+01 3.296262972608025166e+01 3.313911844135802198e+01 3.314902970679012384e+01 3.302959635416667084e+01 3.287565923996913853e+01 3.272226658950617662e+01 3.259097897376543074e+01 3.247238377700617207e+01 3.236553096064815094e+01 3.229797260802469339e+01 3.225846402391974976e+01 3.222990644290123186e+01 3.220495611496913568e+01 3.205198543595679439e+01 3.211608169367283949e+01 3.220083140432098645e+01 3.230202642746913710e+01 3.241843074845678530e+01 3.254455922067901241e+01 3.269218123070987758e+01 3.286968701774691226e+01 3.304513744212962933e+01 3.313319058641975090e+01 3.305986930941357826e+01 3.291715277777777970e+01 3.276063994984567529e+01 3.263583719135802852e+01 3.250817756558642202e+01 3.240801601080246996e+01 3.234289834104938421e+01 3.230477141203703439e+01 3.229121768904321499e+01 3.228045476466049024e+01 3.229025366512345840e+01 3.231607011959876274e+01 3.238251350308642174e+01 3.247150993441358224e+01 3.260848427854937626e+01 3.277527247299382651e+01 3.296268614969135768e+01 3.316687982253086631e+01 3.337973042052469452e+01 3.350910542052469054e+01 3.348218171296296219e+01 3.312918451003086773e+01 3.306129292052469282e+01 3.280412856867283722e+01 3.268224537037036725e+01 3.257913435570987559e+01 3.253337191358024683e+01 3.250291329089505865e+01 3.246977527006173148e+01 3.245864920910494078e+01 3.247063850308641975e+01 3.251092544367283921e+01 3.258893952546296191e+01 3.268243537808641719e+01 3.281065923996913369e+01 3.296476466049382736e+01 3.313364149305555628e+01 3.331820312500000369e+01 3.348504870756173091e+01 3.349969714506173091e+01 3.338279658564814412e+01 3.319566792052469140e+01 3.301676890432099043e+01 3.283803481867283836e+01 3.267082224151234726e+01 3.252834924768518476e+01 3.243415702160493197e+01 3.238037133487654273e+01 3.234209924768518363e+01 3.231286988811728378e+01 3.229320312500000512e+01 3.220293451003086460e+01 3.228497058256172636e+01 3.237146460262345471e+01 3.248678915895061436e+01 3.262444878472221887e+01 3.276930844907407447e+01 3.292476948302469708e+01 3.308934702932098304e+01 3.322309751157407476e+01 3.323834442515432386e+01 3.310669801311728833e+01 3.290203944830246741e+01 3.270411988811728321e+01 3.251256028163579970e+01 3.233874614197530661e+01 3.217349054783950635e+01 3.205348861882715994e+01 3.197592447916666458e+01 3.191230999228395149e+01 3.186923273533950507e+01 3.185181471836419576e+01 3.184696903935185119e+01 3.187848427854938649e+01 3.191935329861111370e+01 3.199399787808641804e+01 3.207495466820987673e+01 3.217067660108024540e+01 3.226961323302469253e+01 3.240377266589506178e+01 3.252131221064814781e+01 3.255321228780864118e+01 3.224547550154321129e+01 3.214032455632715823e+01 3.195999565972222101e+01 3.177379002700617505e+01 3.160101369598765686e+01 3.143080729166666387e+01 3.129370659722222214e+01 3.117247202932098560e+01 3.107590952932098816e+01 3.099166377314814369e+01 3.091323350694444727e+01 3.086196325231481197e+01 3.084154079861110986e+01 3.084725067515432428e+01 3.087389998070987929e+01 3.091925154320987446e+01 3.098271122685185119e+01 3.106348234953703624e+01 3.116008825231481083e+01 3.128311005015432400e+01 3.138132040895061792e+01 3.139115065586419817e+01 3.129805025077160607e+01 3.114390190972222072e+01 3.098033998842592851e+01 3.085024209104938464e+01 3.072981626157407220e+01 3.062936101466048910e+01 3.058211805555555429e+01 3.054978009259259153e+01 3.052460841049382267e+01 3.028953944830246670e+01 3.039911217206790184e+01 3.048057966820987374e+01 3.057408034336419433e+01 3.068647569444444656e+01 3.080234374999999858e+01 3.094023485725308475e+01 3.109833526234567458e+01 3.125779755015432215e+01 3.135180314429012327e+01 3.130850839120370566e+01 3.115901331018518405e+01 3.098355082947530548e+01 3.083317901234568126e+01 3.070147183641975275e+01 3.058323447145061635e+01 3.049373070987654089e+01 3.044958285108024398e+01 3.041186969521604766e+01 3.038494598765432286e+01 3.037638551311728463e+01 3.038906684027777416e+01 3.042735435956790369e+01 3.048073784722222257e+01 3.056593846450617136e+01 3.067854456018518405e+01 3.080861930941357940e+01 3.094631896219136280e+01 3.109292197145061465e+01 3.123698977623456940e+01 3.155414785879629846e+01 3.144309944058641904e+01 3.119941888503086602e+01 3.095101273148148024e+01 3.072548514660493524e+01 3.051677517361111214e+01 3.034269193672839648e+01 3.021759500385802610e+01 3.011400077160493893e+01 3.002784625771604965e+01 2.997218991126543131e+01 2.993494936342592538e+01 2.993647038966049223e+01 2.997017457561728193e+01 3.004027536651234342e+01 3.013357542438271608e+01 3.022900511188271366e+01 3.035231674382715994e+01 3.048656394675925796e+01 3.062996383101852160e+01 3.077429783950617548e+01 3.082686439043209958e+01 3.076086660879629875e+01 3.061866319444444429e+01 3.044369309413580638e+01 3.028178819444444514e+01 3.013755353009259252e+01 3.000791618441358111e+01 2.991377652391975417e+01 2.986468267746913696e+01 2.981443624614197319e+01 2.944881992669753146e+01 2.947227623456790369e+01 2.947693431712962919e+01 2.949932822145061806e+01 2.954015625000000256e+01 2.961934365354938592e+01 2.971588541666666572e+01 2.981780719521604794e+01 2.991707272376543258e+01 3.002576099537037280e+01 3.007898775077160280e+01 3.000865162037036882e+01 2.983753423996913767e+01 2.964864776234568211e+01 2.947731095679012370e+01 2.931985580632716193e+01 2.918534818672839393e+01 2.908411120756172608e+01 2.899501253858024441e+01 2.893985484182098844e+01 2.888790750385802752e+01 2.885341483410493879e+01 2.883818721064814738e+01 2.884953366126543273e+01 2.889845148533950336e+01 2.896746624228395106e+01 2.906232156635802610e+01 2.917334538966049351e+01 2.929169511959876360e+01 2.940541859567901284e+01 2.942264033564814696e+01 2.908414978780864146e+01 2.883626398533950663e+01 2.867295621141975559e+01 2.852321952160493979e+01 2.839086371527777786e+01 2.829475887345678942e+01 2.823013165509259181e+01 2.819354600694444457e+01 2.815216049382716079e+01 2.813372492283950521e+01 2.814561246141975559e+01 2.818563464506172878e+01 2.826051697530864359e+01 2.835313560956790369e+01 2.846098958333333329e+01 2.859304783950616979e+01 2.872862413194444287e+01 2.886677035108024825e+01 2.890890625000000114e+01 2.882675491898148223e+01 2.867741126543209873e+01 2.852222800925925839e+01 2.838320505401234684e+01 2.824807629243827378e+01 2.812980179398147840e+01 2.805000096450617164e+01 2.800577256944444571e+01 2.797410831404321030e+01 2.796688464506172878e+01 2.796737943672839322e+01 2.790213541666666686e+01 2.797988522376543230e+01 2.808098476080246897e+01 2.818732687114197688e+01 2.833236255787036839e+01 2.848624469521605107e+01 2.864072289737654131e+01 2.881227141203703468e+01 2.899535927854938322e+01 2.914272907021604908e+01 2.916491946373457012e+01 2.906981867283950649e+01 2.891700279706790155e+01 2.876763069058641875e+01 2.862598283179012526e+01 2.850026716820987360e+01 2.839421006944444414e+01 2.833048611111111015e+01 2.828678337191357883e+01 2.827248601466049394e+01 2.827066936728395063e+01 2.828322771990740847e+01 2.832581259645061778e+01 2.839012442129629576e+01 2.849533420138888928e+01 2.861769338348765146e+01 2.874840904706790212e+01 2.888963107638889127e+01 2.905206645447530889e+01 2.919615210262345784e+01 2.937639949845679155e+01 3.014448495370370296e+01 3.016672839506172821e+01 3.007660397376543315e+01 2.988580825617284020e+01 2.967476996527777899e+01 2.947788773148148422e+01 2.929595968364197489e+01 2.913363233024691468e+01 2.899772810570987502e+01 2.889766734182098773e+01 2.883607253086419675e+01 2.880073784722222285e+01 2.876532455632716179e+01 2.875664110725308831e+01 2.877494020061728364e+01 2.883410542052469339e+01 2.891351900077160408e+01 2.901528983410493723e+01 2.914342737268518491e+01 2.928734471450617249e+01 2.942863667052469268e+01 2.958603491512345940e+01 2.974802420910493694e+01 2.992670380015432130e+01 3.008187885802469097e+01 3.012990885416666842e+01 3.004262201003086474e+01 2.988727044753086304e+01 2.971387876157407604e+01 2.954964120370370395e+01 2.940617717978394907e+01 2.884923996913580169e+01 2.886398051697530676e+01 2.887444444444444613e+01 2.887767023533950450e+01 2.889407889660493822e+01 2.892694203317901369e+01 2.898151523919753103e+01 2.906991560570987687e+01 2.917380401234567699e+01 2.931509645061728264e+01 2.946507137345679084e+01 2.964452401620370381e+01 2.983149546682098574e+01 3.004333285108024754e+01 3.026880545910493581e+01 3.050209104938271309e+01 3.065576726466049351e+01 3.066437692901234513e+01 3.057045572916666387e+01 3.043878665123456528e+01 3.031469473379629420e+01 3.021644772376543386e+01 3.011748119212963104e+01 3.004605372299382893e+01 3.000599295910494035e+01 2.999496431327160550e+01 2.998347270447530732e+01 2.997978443287037109e+01 3.000100646219135925e+01 3.003615210262345414e+01 3.024570264274691311e+01 3.033718557098765345e+01 3.026134500385802539e+01 3.027406491126543386e+01 3.027109374999999858e+01
1.025389130015432038e+01 1.020251639660493836e+01 1.010079957561728392e+01 9.935285011574073621e+00 9.749667727623457125e+00 9.731150655864196253e+00 9.692479263117283139e+00 9.673423032407407973e+00 9.686897183641976383e+00 9.648970871913579828e+00 9.614435763888890207e+00 9.589248649691358040e+00 9.590406539351851833e+00 9.568167920524691894e+00 9.505969328703702814e+00 9.472369309413579685e+00 9.455084394290123484e+00 9.440041956018518476e+00 9.425833333333333286e+00 9.457095871913580254e+00 9.534308931327160508e+00 9.623703703703704093e+00 9.662693383487654941e+00 9.713512249228395845e+00 9.704425154320988511e+00 9.697708815586420172e+00 9.712920042438272006e+00 9.701391300154320163e+00 9.682148437500000426e+00 9.653085455246914748e+00 9.661371527777777857e+00 9.711067708333333215e+00 9.578240258487653591e+00 9.492228973765431732e+00 9.415738329475308532e+00 9.378013117283950706e+00 9.330303819444443647e+00 9.334970582561727070e+00 9.343074845679012697e+00 9.325774498456789630e+00 9.311013695987655936e+00 9.337195216049382296e+00 9.426721161265431803e+00 9.500258005401235550e+00 9.567664448302469538e+00 9.585492862654321655e+00 9.595443190586419036e+00 9.604658082561728705e+00 9.609915605709877795e+00 9.602326388888888786e+00 9.568362268518518121e+00 9.563358410493828288e+00 9.529575135030864175e+00 9.494650366512344064e+00 9.452970196759260091e+00 9.435147087191358750e+00 9.406679205246913256e+00 9.411432773919752748e+00 9.465310088734566918e+00 9.421248070987653378e+00 9.348534915123455136e+00 9.159313753858025819e+00 8.741568287037036811e+00 8.780258969907407618e+00 8.743831018518518405e+00 8.822987557870371589e+00 9.130995370370371234e+00 9.123865740740740193e+00 9.154741512345678345e+00 9.223012152777776862e+00 9.286816647376543443e+00 9.300968364197531812e+00 9.333186728395062914e+00 9.385033757716049863e+00 9.459207658179012768e+00 9.481457368827161503e+00 9.548068576388889284e+00 9.563916377314814810e+00 9.560208333333333641e+00 9.570000964506172991e+00 9.541550443672839776e+00 9.535858410493826653e+00 9.538131751543209802e+00 9.579256847993827151e+00 9.629041280864198527e+00 9.718657889660493154e+00 9.788898051697531244e+00 9.870530960648148167e+00 9.887385706018518405e+00 9.898008294753086744e+00 9.900156250000000213e+00 9.870116705246914535e+00 9.835118634259259807e+00 1.009626350308641918e+01 1.003090808256172828e+01 9.973492959104939715e+00 9.888596643518519969e+00 9.805081018518517766e+00 9.775856963734566918e+00 9.741915991512344775e+00 9.680691068672839350e+00 9.664809510030863748e+00 9.658102334104938791e+00 9.711045042438271935e+00 9.777457561728395419e+00 9.905616801697529894e+00 9.997124807098765942e+00 1.006696952160493908e+01 1.006095920138888822e+01 1.004612943672839442e+01 1.005080005787037045e+01 1.003437982253086425e+01 1.002096161265432173e+01 1.003022665895061749e+01 1.000619984567901177e+01 9.986593364197531741e+00 9.960099344135802113e+00 9.923124035493827932e+00 9.879282407407407263e+00 9.852016300154321726e+00 9.791578896604939075e+00 9.755835262345678771e+00 9.778295717592593306e+00 9.830986689814816160e+00 9.994902584876543372e+00 1.003448881172839613e+01 1.004835262345678970e+01 1.005522665895061785e+01 1.005253520447530846e+01 1.005219425154320945e+01 1.001156057098765473e+01 9.998468846450617065e+00 9.985983796296295623e+00 9.998192033179012839e+00 9.962863618827160650e+00 9.940435956790123484e+00 9.899541859567902335e+00 9.867808159722223138e+00 9.805943769290124123e+00 9.759236593364198242e+00 9.694399112654322082e+00 9.650693479938272645e+00 9.610626929012346054e+00 9.680518904320987161e+00 9.808785204475308106e+00 9.924194155092592950e+00 1.000151138117283978e+01 1.003626591435185134e+01 1.008735773533950564e+01 1.008113281249999993e+01 1.008342303240740634e+01 1.007805844907407433e+01 1.001573640046296276e+01 1.000071469907407362e+01 9.982230420524691894e+00 9.887409818672839634e+00 9.865520833333334849e+00 9.805205439814814738e+00 9.740390142746914393e+00 9.670295621141976383e+00 9.650526620370371234e+00 9.601008391203702530e+00 9.547599826388887934e+00 9.546732253086419817e+00 9.572679398148148167e+00 9.684909336419753600e+00 9.780128279320987161e+00 9.858225790895062346e+00 9.929677854938272930e+00 9.944877989969135967e+00 9.956491126543209447e+00 9.972825038580246826e+00 9.942775848765432301e+00 9.904452642746914393e+00 9.904558256172839137e+00 9.884918981481481737e+00 9.864426118827159584e+00 9.834368730709876161e+00 9.785804398148147953e+00 9.753322241512345059e+00 9.687451292438270301e+00 9.673009259259259807e+00 9.628286554783949569e+00 9.576006462191358537e+00 9.578407118055555003e+00 9.643358410493826582e+00 9.861694155092592950e+00 9.882053433641974749e+00 9.910002411265432798e+00 9.933722511574075043e+00 9.934477237654320447e+00 9.931384066358026175e+00 9.913222897376543941e+00 9.898141878858025322e+00 9.887691454475307395e+00 9.875091628086419604e+00 9.846090856481481524e+00 9.824321952160493865e+00 9.783272087191358324e+00 9.758448591820988227e+00 9.716789158950616567e+00 9.697272858796296191e+00 9.653894193672838853e+00 9.605848283179010849e+00 9.592475405092592666e+00 9.642228009259259380e+00 9.752253086419752748e+00 9.834325810185184480e+00 9.910390142746912545e+00 9.975528549382715937e+00 1.001755497685185148e+01 1.001826533564814881e+01 1.002739101080246975e+01 1.001904176311728278e+01 1.000448832947530775e+01 9.969781539351853183e+00 9.957464313271605860e+00 9.843472704475308532e+00 9.820955343364197176e+00 9.781549479166665506e+00 9.701342110339506775e+00 9.656630497685185333e+00 9.584119405864198527e+00 9.553871045524690686e+00 9.504994695216048228e+00 9.520615354938271935e+00 9.579566454475308745e+00 9.710809220679012199e+00 9.814000771604938222e+00 9.903112943672839563e+00 9.947050540123456130e+00 1.000459828317901234e+01 1.002501880787037081e+01 1.002178481867283999e+01 9.991870659722222214e+00 9.974484471450617562e+00 9.955181809413579330e+00 9.935751832561727781e+00 9.922177372685185404e+00 9.906487268518519684e+00 9.839530285493827577e+00 9.762709297839506917e+00 9.724707272376544864e+00 9.696178626543209944e+00 9.641778067129628482e+00 9.624538483796296617e+00 9.595509259259259238e+00 9.956880304783950919e+00 9.961071566358025819e+00 9.982184124228394850e+00 1.002509307484567991e+01 1.008357108410493908e+01 1.009646846064814874e+01 1.011748697916666551e+01 1.010393566743827165e+01 1.008542004243827073e+01 1.007853684413580275e+01 9.989564525462961697e+00 9.986467978395060285e+00 9.954079378858024185e+00 9.956167534722222712e+00 9.879698109567900843e+00 9.836576003086419107e+00 9.782773919753086744e+00 9.758347318672839776e+00 9.708861400462962976e+00 9.664254436728395348e+00 9.655559895833334849e+00 9.624174864969136323e+00 9.593148630401234556e+00 9.609131944444444073e+00 9.635236786265432229e+00 9.727920042438272574e+00 9.861869212962963260e+00 9.924681230709877511e+00 9.962844328703704733e+00 9.974951292438271722e+00 1.001613715277777850e+01 1.009856915509259245e+01 1.012766010802469197e+01 1.007830873842592467e+01 1.004863329475308653e+01 9.980729648919753672e+00 9.961552854938272361e+00 9.926680169753085536e+00 9.880528549382715298e+00 9.846252893518519400e+00 9.796652681327159939e+00 9.765619695216049223e+00 9.730970293209875166e+00 9.688700810185185475e+00 9.672490354938272361e+00 9.717166763117283779e+00 9.830620177469135967e+00 9.919823495370369670e+00 1.000225405092592723e+01 1.006861979166666643e+01 1.009282648533950599e+01 1.010010416666666622e+01 1.007338879243827101e+01 1.007812162422839641e+01 1.006671103395061628e+01 1.004566213348765302e+01 1.000822530864197546e+01 9.995765335648147953e+00 9.942333140432099370e+00 9.899453607253086318e+00 9.883460165895062488e+00 9.811626639660493865e+00 9.986906346450616923e+00 9.943747106481481524e+00 9.897238618827159939e+00 9.812989486882717216e+00 9.808013117283950422e+00 9.981102912808642813e+00 1.005371576003086531e+01 1.014221209490740705e+01 1.017374855324074012e+01 1.018009018132716115e+01 1.020667293595678871e+01 1.019272810570987708e+01 1.012742525077160494e+01 1.012961130401234477e+01 1.012143422067901177e+01 1.007584731867283878e+01 1.003614390432098880e+01 9.982950424382716292e+00 9.920945698302469751e+00 9.844553915895062346e+00 9.805938464506173347e+00 9.756939139660493865e+00 9.761904417438271864e+00 9.703920235339506206e+00 9.678611111111111498e+00 9.719994212962962621e+00 9.841034915123456628e+00 9.994969135802469040e+00 1.005081838348765366e+01 1.013210310570987716e+01 1.006812307098765302e+01 1.009960503472222193e+01 1.007862702546296241e+01 1.006876205632716115e+01 1.004103636188271587e+01 1.001219859182098659e+01 9.993795331790122916e+00 9.953909625771604652e+00 9.916603973765431235e+00 9.874159432870371234e+00 9.833702256944444997e+00 9.769107349537035745e+00 9.722594039351850626e+00 9.689014274691357897e+00 9.658915895061729984e+00 9.654349922839505993e+00 9.649229841820988085e+00 9.651463638117283139e+00 9.732931616512344064e+00 9.852975019290122205e+00 9.998827160493826582e+00 1.006297019675925952e+01 1.006642409336419597e+01 1.008929783950617320e+01 1.008559799382716093e+01 1.008384259259259252e+01 1.004797935956790234e+01 1.001709538966049351e+01 1.002234664351851734e+01 1.000140866126543315e+01 9.937426215277778141e+00 1.007310860339506320e+01 1.001498119212963012e+01 9.944051408179012341e+00 9.878782793209877511e+00 9.804371624228394921e+00 9.746133294753086318e+00 9.701361882716048157e+00 9.721226851851850981e+00 9.781053722993826582e+00 9.892721354166667425e+00 1.001085407021604823e+01 1.005968701774691354e+01 1.008759837962963068e+01 1.011665461033950564e+01 1.011539689429012334e+01 1.007488088348765487e+01 1.007528694058641960e+01 1.007048562885802490e+01 1.002530092592592581e+01 9.994813368055556424e+00 9.981699459876542946e+00 9.946209008487654657e+00 9.899380787037037166e+00 9.849676890432098375e+00 9.820939911265432087e+00 9.810912422839507485e+00 9.731453028549383433e+00 9.733823784722222427e+00 9.805053530092592950e+00 9.930589313271605434e+00 1.005062934027777821e+01 1.010505787037036995e+01 1.012417631172839450e+01 1.008046874999999964e+01 1.007932002314814746e+01 9.981886091820987517e+00 9.993108603395061351e+00 9.979327256944444002e+00 9.955640914351851833e+00 9.958361786265431448e+00 9.928658854166666714e+00 9.893965084876542804e+00 9.837046682098764094e+00 9.773411940586418822e+00 9.735564718364196679e+00 9.698303915895062133e+00 9.651196952160493225e+00 9.667008101851852331e+00 9.749812885802468188e+00 9.906825327932098801e+00 1.007755449459876473e+01 1.016985050154320902e+01 1.016958333333333364e+01 1.021678771219135839e+01 1.021615692515432094e+01 1.016944637345678970e+01 1.012889998070987652e+01 1.010764756944444365e+01 1.008568528163580247e+01 1.004707706404320966e+01 1.001560474537036960e+01 1.007044029706790234e+01 1.000471547067901312e+01 9.917513020833332860e+00 9.839432388117284489e+00 9.783325617283951559e+00 9.742275270061728776e+00 9.692811053240740549e+00 9.665951485339505211e+00 9.726772280092593093e+00 9.898274498456789416e+00 9.980159143518518405e+00 1.011792004243827137e+01 1.015465229552469140e+01 1.019233121141975396e+01 1.023319155092592503e+01 1.019959249614197638e+01 1.016577594521604944e+01 1.014537229938271601e+01 1.011370129243827165e+01 1.009562355324074012e+01 1.006495032793209887e+01 1.003263599537037187e+01 9.952763310185185119e+00 9.882476369598766297e+00 9.832811535493826582e+00 9.794855806327161574e+00 9.738868634259258528e+00 9.732031250000000355e+00 9.682162422839505567e+00 9.726230709876542591e+00 9.849047550154320874e+00 1.010381365740740733e+01 1.015801359953703731e+01 1.016519531249999986e+01 1.015249855324073991e+01 1.015813319830246897e+01 1.016063898533950649e+01 1.012197723765432045e+01 1.011558545524691510e+01 1.009860869984567877e+01 1.008910011574073984e+01 1.008219184027777793e+01 1.001924141589506156e+01 9.978517554012345414e+00 9.956596257716048726e+00 9.889132908950617917e+00 9.848726369598765018e+00 9.828474151234567913e+00 9.769547164351852331e+00 9.754134355709878079e+00 9.829812403549382793e+00 9.938122588734568552e+00 1.007034529320987737e+01 1.015198350694444329e+01 1.017969666280864161e+01 1.020013647762345776e+01 1.019935667438271665e+01 1.016819203317901277e+01 1.015233024691358032e+01 1.013219810956790035e+01 1.009099247685185219e+01 1.008461130401234662e+01 1.016042148919753174e+01 1.012933063271604972e+01 1.005929398148148124e+01 9.915653935185185119e+00 9.884970582561727781e+00 9.840700231481481097e+00 9.825295621141975744e+00 9.887274305555555642e+00 1.004763358410493801e+01 1.016103780864197503e+01 1.022253134645061756e+01 1.027736593364197581e+01 1.032295428240740698e+01 1.032579812885802362e+01 1.029145640432098752e+01 1.025311246141975197e+01 1.025076630015432144e+01 1.024664496527777757e+01 1.021559702932098723e+01 1.016031008873456720e+01 1.009897424768518448e+01 1.005594087577160423e+01 9.976120273919752535e+00 9.959782986111109793e+00 9.907450810185185475e+00 9.829917534722222072e+00 9.794159915123456628e+00 9.836490644290122987e+00 9.954662905092593661e+00 1.010517554012345620e+01 1.014520109953703830e+01 1.020208043981481616e+01 1.019080391589506185e+01 1.021046778549382772e+01 1.020300588348765558e+01 1.018853009259259146e+01 1.017012201003086425e+01 1.013272521219135847e+01 1.009964940200617356e+01 1.004713204089506284e+01 1.002160493827160614e+01 9.993952064043210015e+00 9.927669753086419746e+00 9.852300829475309385e+00 9.817977912808641960e+00 9.759370659722222285e+00 9.744308931327159584e+00 9.716591435185184977e+00 9.680461998456790340e+00 9.684634452160494789e+00 9.788259548611110361e+00 9.931021412037036811e+00 1.005087528935185226e+01 1.013776572145061827e+01 1.018969232253086332e+01 1.021650848765432151e+01 1.019483892746913689e+01 1.019893952546296312e+01 1.016888117283950521e+01 1.013466820987654415e+01 1.011740499614197475e+01 1.010193721064814909e+01 1.007930459104938237e+01 9.987524594907407405e+00 9.934394772376544225e+00 9.882995273919751966e+00 9.828423032407407334e+00 9.781811824845679126e+00 9.750343364197529894e+00 9.729080343364197248e+00 9.770637056327160508e+00 9.895244020061729984e+00 1.004136574074074062e+01 1.011988811728394921e+01 1.015327256944444301e+01 1.019050009645061827e+01 1.020728395061728477e+01 1.019365933641975275e+01 1.016854986496913504e+01 1.012130594135802397e+01 1.009613136574074055e+01 1.007690152391975325e+01 1.006726610725308646e+01 1.001271026234567962e+01 9.970742669753086318e+00 9.885211226851852828e+00 9.827351948302469609e+00 9.774659529320988582e+00 9.751176697530864246e+00 9.717933063271605221e+00 9.739605516975307964e+00 9.854935378086420172e+00 1.014369405864197482e+01 1.022536747685185254e+01 1.023533757716049308e+01 1.024486352237654252e+01 1.024625048225308710e+01 1.021009211033950592e+01 1.018403308256172934e+01 1.017698398919753089e+01 1.012276379243827229e+01 1.009424913194444429e+01 1.005349681712962884e+01 9.992660108024690402e+00 9.973965084876542875e+00 9.931475694444444002e+00 9.854400559413580396e+00 9.811515239197531102e+00 9.778524787808642316e+00 9.744752121913581533e+00 9.846036844135802824e+00 9.994434317129631040e+00 1.016638165509259295e+01 1.026262249228395085e+01 1.030417968749999957e+01 1.034415846836419739e+01 1.034334587191358068e+01 1.031522521219135768e+01 1.029642168209876552e+01 1.023636043595679013e+01 1.019700906635802617e+01 1.018652584876543088e+01 1.017177758487654415e+01 1.014379629629629598e+01 1.005035349151234669e+01 9.983341531635801402e+00 9.903798707561728421e+00 9.841621817129629690e+00 9.819087577160495073e+00 9.805081983024692249e+00 9.794664834104937157e+00 9.859491222993826298e+00 1.000034432870370438e+01 1.013488522376543344e+01 1.021791618441358018e+01 1.027676601080246854e+01 1.030114390432098759e+01 1.033971450617283949e+01 1.030494261188271565e+01 1.029316358024691347e+01 1.027074315200617427e+01 1.023938368055555515e+01 1.019939814814814838e+01 1.018830922067901312e+01 1.012595823688271501e+01 1.009440634645061685e+01 1.000349151234567913e+01 9.986048418209875877e+00 9.940581597222221788e+00 9.914874614197531244e+00 9.856244695216048513e+00 9.835909047067900701e+00 9.866473283179011844e+00 1.007328800154320980e+01 1.015686583719135783e+01 1.019530960648148188e+01 1.021550877700617299e+01 1.022301070601851869e+01 1.021291329089506128e+01 1.020050733024691247e+01 1.019113570601851926e+01 1.017523871527777857e+01 1.014667872299382800e+01 1.012179301697530853e+01 1.008213107638888850e+01 1.003878134645061770e+01 9.987891589506173062e+00 9.945828993055554790e+00 9.902528935185186398e+00 9.844217785493826867e+00 9.782858314043210157e+00 9.730148051697531386e+00 9.678474633487653023e+00 9.672397762345678274e+00 9.709780092592593448e+00 9.800345293209877795e+00 9.921309317129630045e+00 9.992277199074074190e+00 1.001082609953703795e+01 9.999814814814813602e+00 9.999881847993828288e+00 9.984194637345678913e+00 9.950847318672838782e+00 9.919320023148149090e+00 9.867301793981482660e+00 9.791317033179012697e+00 9.712906057098765089e+00 9.666773726851852544e+00 9.622223668981481737e+00 9.587526523919754240e+00 9.562163387345679055e+00 9.517106481481482305e+00 9.481749131944443576e+00 9.485217013888888715e+00 9.598381076388887934e+00 9.743410976080246755e+00 9.852337962962963047e+00 9.907695312499999574e+00 9.916009837962961981e+00 9.923825231481481879e+00 9.928184799382716363e+00 9.903483314043210584e+00 9.865774016203705088e+00 9.861499324845679482e+00 9.813977141203704235e+00 9.808349729938271366e+00 9.767666859567901483e+00 9.739522569444444500e+00 9.680805362654322010e+00 9.621122685185184764e+00 9.566991705246913114e+00 9.550380497685186043e+00 9.509416473765432087e+00 9.516931423611111995e+00 9.821316068672839350e+00 9.921336805555556637e+00 1.000939959490740705e+01 1.003579668209876630e+01 1.006719280478395184e+01 1.009263020833333258e+01 1.006099874614197454e+01 1.002283757716049450e+01 9.994599729938270727e+00 9.982308063271604581e+00 9.943792438271605860e+00 9.912210648148148451e+00 9.864284818672839350e+00 9.817028838734568552e+00 9.755755208333333428e+00 9.689440104166665790e+00 9.639448784722221220e+00 9.589325327932098020e+00 9.555250771604939075e+00 9.513572530864196963e+00 9.483597608024691539e+00 9.551138599537036811e+00 9.665318287037036882e+00 9.794787326388888715e+00 9.885101755401233703e+00 9.966158854166666359e+00 1.002203173225308674e+01 1.001722656249999943e+01 1.000111545138888935e+01 9.958633294753084897e+00 9.939793595679011773e+00 9.877183641975308959e+00 9.874160397376543941e+00 9.840469232253084897e+00 9.803718171296296191e+00 9.755481770833332789e+00 9.686870659722222499e+00 9.642057291666667140e+00 9.609903549382716292e+00 9.591106288580247607e+00 9.562730516975308959e+00 9.580595582561729273e+00 9.691509934413579330e+00 9.815160108024691965e+00 9.920304783950617988e+00 9.974081307870370949e+00 1.000675106095678935e+01 1.001163435570987659e+01 1.000117669753086425e+01 1.001740306712962969e+01 9.971680652006172707e+00 9.971131847993826014e+00 9.933851755401235550e+00 9.907735339506173133e+00 9.860926408179011560e+00 9.805926408179011844e+00 9.750633198302470106e+00 9.689399594907408542e+00 9.662831307870371589e+00 9.620816936728395774e+00 9.608745177469135257e+00 9.648936149691358821e+00 9.878405189043210299e+00 9.985813078703703383e+00 1.002526523919753210e+01 1.002121817129629555e+01 1.002738667052469168e+01 9.998121141975307324e+00 9.988888888888888928e+00 9.948458719135802042e+00 9.957200038580246826e+00 9.922680844907405984e+00 9.859326292438270301e+00 9.843557581018517411e+00 9.781152102623455136e+00 9.722116608796294912e+00 9.659873167438272290e+00 9.615597029320987588e+00 9.559210551697530533e+00 9.545624999999999361e+00 9.593538773148148735e+00 9.723635706018518121e+00 9.841760706018519045e+00 9.906155478395062275e+00 9.949291570216049152e+00 9.986652199074073977e+00 9.979896797839506561e+00 1.000075424382715994e+01 9.967230420524691326e+00 9.961678240740740264e+00 9.920108989197531812e+00 9.890511188271604581e+00 9.904526427469136252e+00 9.836693190586418112e+00 9.742538097993826085e+00 9.686871624228395206e+00 9.613081597222221220e+00 9.562164834104939004e+00 9.551673418209876587e+00 9.500581597222222285e+00 9.499686535493827577e+00 9.493668499228395063e+00 9.546416377314814738e+00 9.684484953703703880e+00 9.812167727623457125e+00 9.890387249228394850e+00 9.932594039351851478e+00 9.937668306327159584e+00 9.968375289351850910e+00 9.952039448302469893e+00 9.935854070216048939e+00 9.898249903549382722e+00 9.880255594135803676e+00 9.841575038580247181e+00 9.792631655092591814e+00 9.752904610339507840e+00 9.680364583333334494e+00 9.624230324074074971e+00 9.615072820216049365e+00 9.593033371913580964e+00 9.540234857253086176e+00 9.536087962962962905e+00 9.498660300925926947e+00 9.891358989197529539e+00 9.912221257716048228e+00 9.932595968364196892e+00 9.988519483024690615e+00 1.006127604166666778e+01 1.009798852237654287e+01 1.009124421296296426e+01 1.009803240740740726e+01 1.007079668209876466e+01 1.006858892746913625e+01 1.000932629243827066e+01 9.956758294753086602e+00 9.944455536265433437e+00 9.915673225308642813e+00 9.884293981481482305e+00 9.798840663580246968e+00 9.762778742283950706e+00 9.701485821759257888e+00 9.649126157407406978e+00 9.592464313271603871e+00 9.560377604166667709e+00 9.524163290895060641e+00 9.520834780092592098e+00 9.501820505401235906e+00 9.481413483796297115e+00 9.549839891975308248e+00 9.689251060956790340e+00 9.798658371913580467e+00 9.903842110339505567e+00 9.962303722993826938e+00 1.000069830246913583e+01 9.865332754629630330e+00 9.826145833333333357e+00 9.801005497685185475e+00 9.771771797839505780e+00 9.769252025462963118e+00 9.725766782407406552e+00 9.685160590277778425e+00 9.628284143518518690e+00 9.623158275462962763e+00 9.580093074845679624e+00 9.515198206018519400e+00 9.464899209104938649e+00 9.430075231481481524e+00 9.404268904320987943e+00 9.385017361111112066e+00 9.381013213734567202e+00 9.418070505401233916e+00 9.534321469907407476e+00 9.666238425925925526e+00 9.772406925154321300e+00 9.840902295524690757e+00 9.862811535493827719e+00 9.882122878086420315e+00 9.883259548611111001e+00 9.876108699845678629e+00 9.865735918209875166e+00 9.838797260802468969e+00 9.816240354938271295e+00 9.777620563271604226e+00 9.763316936728395845e+00 9.874895833333333428e+00 9.801323302469135967e+00 9.881522955246914819e+00 9.842484567901234271e+00 9.820706983024692249e+00
