2.016190716628086363e+02 2.016108526234567933e+02 2.015566362847222024e+02 2.013335040509259386e+02 2.011706833526234561e+02 2.011337432484567955e+02 2.011345143711419610e+02 2.011305000964506178e+02 2.011417042824074031e+02 2.011450704089506303e+02 2.011515663580246951e+02 2.011553168402777771e+02 2.011633757716049331e+02 2.011873008294753049e+02 2.011973143325617457e+02 2.017199329668210055e+02 2.017347608024691397e+02 2.015927030285493800e+02 2.013392954282407459e+02 2.009604861111111234e+02 2.005436038773148084e+02 2.009878356481481489e+02 2.011322786458333383e+02 2.012216280864197699e+02 2.013000298996913671e+02 2.013889588155864203e+02 2.014694290123456710e+02 2.015564472415123305e+02 2.016629084683641793e+02 2.017597540509259204e+02 2.018426861496913602e+02 2.021076649305555577e+02 2.021084939236110927e+02 2.020781168016975471e+02 2.020284162808641781e+02 2.019873972800926083e+02 2.019517573302469202e+02 2.019203747106481615e+02 2.018852570408950555e+02 2.018394024884259181e+02 2.018017418981481512e+02 2.017634596836419973e+02 2.017386178626543369e+02 2.016985122492283722e+02 2.016788638117284052e+02 2.016462331211419610e+02 2.016045867091049502e+02 2.015743692129629778e+02 2.015402223186728179e+02 2.015299435763888880e+02 2.015126943479938291e+02 2.015140065586419666e+02 2.015240596064814724e+02 2.015368643904321004e+02 2.015584100115740966e+02 2.015857759452160565e+02 2.016137692901234573e+02 2.016305121527777828e+02 2.016509370177469123e+02 2.016715538194444548e+02 2.016878462577160462e+02 2.016971932870370381e+02 2.018653935185185162e+02 2.018617134452160542e+02 2.018294931520061652e+02 2.017983043981481615e+02 2.017741820987654364e+02 2.017667756558641941e+02 2.017743865740740716e+02 2.017782793209876502e+02 2.018061275077160417e+02 2.018416063850308717e+02 2.018644507137345840e+02 2.018895847800925765e+02 2.019097439236111029e+02 2.019373784722222069e+02 2.019493441358024484e+02 2.019676321373456744e+02 2.019960373263888869e+02 2.020143889853395081e+02 2.020305888310185196e+02 2.020481751543210009e+02 2.020648384452160542e+02 2.020849107831789979e+02 2.021085754243827068e+02 2.021441261574074133e+02 2.021745558449074167e+02 2.022078009259259090e+02 2.022498427854938257e+02 2.022820471643518374e+02 2.023252772955246712e+02 2.023667906057098662e+02 2.024024402006172636e+02 2.027761154513888755e+02 2.027668200231481421e+02 2.027490533371913557e+02 2.027338165509259227e+02 2.027350332754629676e+02 2.027527290702160485e+02 2.027627734375000159e+02 2.027813604359567705e+02 2.028087056327160269e+02 2.028262471064814747e+02 2.028496445794753242e+02 2.028700091628086284e+02 2.028974083719135990e+02 2.029112432484567705e+02 2.029177256944444423e+02 2.029235648148148243e+02 2.029328211805555497e+02 2.029429591049382680e+02 2.029582855902777681e+02 2.029797492283950646e+02 2.030038141396604772e+02 2.030315904706790207e+02 2.030543894675925856e+02 2.030744680748456688e+02 2.030908646797839481e+02 2.030981823881172943e+02 2.031113054591049547e+02 2.031185300925926072e+02 2.031251051311728588e+02 2.031230632716049342e+02 2.031311279899691442e+02 2.032138208912037101e+02 2.032289506172839424e+02 2.032128592785493879e+02 2.031904364390432249e+02 2.031754494598765461e+02 2.031649151234567796e+02 2.031713691165123521e+02 2.031688536844135626e+02 2.031682706404320982e+02 2.031671243248456733e+02 2.031624112654320982e+02 2.031660474537036976e+02 2.031717529899691215e+02 2.031643007330247030e+02 2.031658434606481478e+02 2.031668663194444662e+02 2.031704750192901088e+02 2.031709003665123419e+02 2.031757899305555384e+02 2.031832894483024745e+02 2.031858912037037044e+02 2.031972434413580402e+02 2.032075081983024631e+02 2.032136718749999886e+02 2.032176340663580447e+02 2.032314216820987838e+02 2.032388392168209919e+02 2.032479002700617343e+02 2.032611443865740739e+02 2.032547183641975153e+02 2.032479113618827000e+02 2.032837789351851825e+02 2.032999455054012117e+02 2.032777377507715926e+02 2.032499951774691169e+02 2.032244873649691215e+02 2.032029166666666526e+02 2.031926847029320982e+02 2.031798548418209975e+02 2.031695515046296237e+02 2.031506954089506110e+02 2.031346059992283983e+02 2.031241054205246712e+02 2.031146778549382645e+02 2.031001929012345784e+02 2.030945081018518579e+02 2.030827739197530946e+02 2.030700337577160326e+02 2.030651466049382634e+02 2.030620611496913455e+02 2.030538430748456733e+02 2.030532146990740614e+02 2.030521956983024836e+02 2.030554171489197586e+02 2.030599763695987576e+02 2.030620862268518465e+02 2.030624064429012208e+02 2.030626234567901349e+02 2.030668889853395171e+02 2.030734365354938404e+02 2.030699657600308683e+02 2.030739539930555395e+02 2.030852845293210009e+02 2.030860841049382657e+02 2.030777372685185185e+02 2.030536834490740716e+02 2.030374662422839549e+02 2.030238377700617320e+02 2.030124975887345897e+02 2.030033849344135888e+02 2.030004624807098708e+02 2.029833670910493879e+02 2.029812707368827205e+02 2.029622516396605079e+02 2.029603481867283961e+02 2.029487398726851950e+02 2.029395606674382861e+02 2.029281746720679109e+02 2.029185050154320891e+02 2.028921706211419860e+02 2.028659582368827046e+02 2.028296778549382680e+02 2.028005627893518579e+02 2.027708965084876525e+02 2.026996402391975209e+02 2.026730801504629653e+02 2.026469738618827137e+02 2.026217230902777828e+02 2.025898215663580402e+02 2.025569762731481376e+02 2.025138618827160428e+02 2.024740943287036998e+02 2.023507431520061743e+02 2.023515099344135990e+02 2.023295818865740614e+02 2.023114838927469350e+02 2.022956722608024904e+02 2.023071566358024711e+02 2.023089554398148096e+02 2.023071532600308728e+02 2.023065663580246962e+02 2.023152613811728600e+02 2.023097718942901224e+02 2.023250872878086284e+02 2.023188792438271548e+02 2.023224373070987667e+02 2.023285141782407379e+02 2.023388233024691374e+02 2.023557783564814940e+02 2.023624069251543176e+02 2.023671860532407436e+02 2.023716285686728327e+02 2.023793532986111074e+02 2.023840644290123407e+02 2.023837755594135785e+02 2.023865702160493640e+02 2.023893865740740807e+02 2.023946956983024847e+02 2.023971474729938222e+02 2.023994034529321198e+02 2.024019000771604908e+02 2.023934895833333201e+02 2.023977203896604919e+02 2.024226340663580288e+02 2.024222550154321141e+02 2.024126157407407334e+02 2.023913295717592575e+02 2.023790480324074110e+02 2.023750974151234345e+02 2.023687205825617355e+02 2.023677763310185185e+02 2.023601422646604817e+02 2.023577975501543165e+02 2.023542592592592655e+02 2.023537948495370529e+02 2.023557614776234459e+02 2.023566854745370449e+02 2.023469454089506314e+02 2.023366097608024745e+02 2.023354239004629562e+02 2.023352391975308535e+02 2.023305145640431988e+02 2.023312041859568069e+02 2.023214940200617207e+02 2.023194728973765564e+02 2.023187876157407459e+02 2.023188300540123521e+02 2.023248196373456835e+02 2.023261019483024654e+02 2.023299946952160440e+02 2.023342192322530764e+02 2.023350718557098560e+02 2.023329764660493879e+02 2.023415813078703707e+02 2.023911086998456881e+02 2.024023148148148152e+02 2.023996720679012356e+02 2.023895712770061550e+02 2.023841435185185276e+02 2.023933690200617264e+02 2.023998746141975289e+02 2.024059915123456790e+02 2.024255444637345533e+02 2.024413990162036896e+02 2.024544246720679155e+02 2.024645910493827046e+02 2.024756404320987713e+02 2.024922617669753038e+02 2.025150728202160622e+02 2.025245760995370290e+02 2.025327425733024711e+02 2.025460677083333110e+02 2.025547815393518647e+02 2.025778197337963036e+02 2.025965489969135831e+02 2.026259919945987633e+02 2.026316931905864180e+02 2.026338700810185003e+02 2.026540104166666652e+02 2.026669497492283938e+02 2.026785252700617264e+02 2.026931269290123510e+02 2.026907802854938154e+02 2.026998726851851700e+02 2.027363917824074235e+02 2.027312210648148039e+02 2.027237495177469100e+02 2.027198336226852007e+02 2.027278120177469134e+02 2.027334929591049502e+02 2.027376379243827103e+02 2.027404431905864328e+02 2.027537316743827205e+02 2.027720823688271707e+02 2.027934104938271673e+02 2.028031597222222331e+02 2.028153284143518533e+02 2.028277941743827171e+02 2.028357831790123669e+02 2.028553361304012412e+02 2.028702801890432283e+02 2.028751220100308785e+02 2.028795804398148164e+02 2.028949773341049365e+02 2.028907175925926083e+02 2.028961202739197631e+02 2.028961058063271707e+02 2.029117799961419735e+02 2.029171600115740546e+02 2.029148225308641997e+02 2.029162384259259397e+02 2.029161810378086557e+02 2.029185696373456835e+02 2.029192934992283881e+02 2.029209413580246917e+02 2.028990668402777828e+02 2.029008608217592666e+02 2.028941121720679064e+02 2.028847709297839685e+02 2.028861212384259147e+02 2.029049397183642043e+02 2.029084500385802414e+02 2.029197598379629710e+02 2.029251663773148096e+02 2.029283883101851700e+02 2.029352502893518420e+02 2.029390697337962877e+02 2.029388532021604874e+02 2.029395293209876741e+02 2.029323379629629471e+02 2.029203510802469168e+02 2.029060165895061800e+02 2.029075843942900974e+02 2.029071474729938132e+02 2.029088353587962956e+02 2.029037798996913580e+02 2.029045862268518476e+02 2.028950077160493777e+02 2.028944651813271776e+02 2.028952787422839492e+02 2.028838893711419757e+02 2.028960098379629642e+02 2.029012432484567796e+02 2.028988011188271514e+02 2.028980960648148084e+02 2.028935508294752879e+02 2.028187842399691476e+02 2.028209278549382759e+02 2.028130652006172738e+02 2.028126466049382657e+02 2.028119979745370358e+02 2.028029316165123248e+02 2.027882846257715812e+02 2.027720905671296237e+02 2.027606129436728395e+02 2.027496214313271707e+02 2.027528192515432295e+02 2.027596330054012412e+02 2.027598750964505996e+02 2.027594786844135797e+02 2.027507860725308717e+02 2.027505107060185310e+02 2.027609413580246951e+02 2.027746672453703809e+02 2.027957918595678848e+02 2.027917853009259090e+02 2.027964824459876638e+02 2.027990108989197324e+02 2.028068369020061823e+02 2.028153853202160519e+02 2.028244044174382736e+02 2.028356809413580493e+02 2.028433019868827216e+02 2.028455541087962786e+02 2.028523533950617264e+02 2.028625236304012276e+02 2.028730319251543222e+02 2.028734080825617241e+02 2.028758048804012333e+02 2.028926162229938086e+02 2.028978843557098912e+02 2.028974315200617298e+02 2.029043750000000159e+02 2.029225376157407652e+02 2.029469502314814804e+02 2.029598529128086284e+02 2.029739539930555452e+02 2.029819381751543119e+02 2.029953390239197688e+02 2.030051292438271560e+02 2.030160026041666583e+02 2.030308617862654330e+02 2.030489655671296418e+02 2.030722511574074076e+02 2.030862475887345795e+02 2.031103264853395274e+02 2.031273220486111200e+02 2.031335821759259090e+02 2.031519603587962877e+02 2.031812451774691226e+02 2.031911786265432340e+02 2.032000438850308512e+02 2.032203149112654330e+02 2.032351413001543108e+02 2.032453100887345840e+02 2.032453694058642100e+02 2.032570476466049172e+02 2.032433338155863964e+02 2.032486530671296237e+02 2.032465272955246860e+02 2.032466078317901292e+02 2.032465813078703718e+02 2.032476740933641963e+02 2.032459370177469111e+02 2.032472328317901145e+02 2.032582146990740739e+02 2.032609365354938404e+02 2.032622429591049240e+02 2.032643127893518624e+02 2.032623254243827091e+02 2.032626297260802346e+02 2.032661757330246814e+02 2.032676229745370335e+02 2.032704986496913762e+02 2.032724054783950578e+02 2.032768036265431988e+02 2.032710759066358150e+02 2.032732166280864021e+02 2.032746952160493947e+02 2.032809481095679018e+02 2.032849213927469236e+02 2.032753568672839322e+02 2.032788329475308728e+02 2.032959770447531014e+02 2.033133429783950703e+02 2.033160884452160531e+02 2.033171836419753049e+02 2.033193590856481308e+02 2.032248476080247030e+02 2.032317573302469214e+02 2.032391719714506166e+02 2.032430618248456824e+02 2.032471619405864374e+02 2.032486294367284074e+02 2.032521064814814622e+02 2.032599729938271764e+02 2.032674696180555429e+02 2.032647227044753038e+02 2.032490113811728349e+02 2.032501186342592518e+02 2.032552555941358037e+02 2.032493971836419746e+02 2.032375810185185117e+02 2.032261135223765507e+02 2.032168571566357969e+02 2.032025978973765348e+02 2.031924807098765484e+02 2.031922670717592609e+02 2.031659707754629665e+02 2.031598254243827171e+02 2.031463874421296509e+02 2.031449821566357912e+02 2.031414139660493845e+02 2.031374831211419973e+02 2.031314988425925776e+02 2.031247911844135672e+02 2.031130000964506053e+02 2.030998615933642100e+02 2.029926326195987656e+02 2.030015846836419655e+02 2.030058608217592564e+02 2.030049580439814747e+02 2.030049122299382702e+02 2.030038044945987679e+02 2.030137061149691533e+02 2.030201745756172897e+02 2.030347419945987610e+02 2.030314805169753072e+02 2.030233121141975516e+02 2.030187586805555497e+02 2.030286588541666788e+02 2.030323509837962774e+02 2.030410054976852052e+02 2.030465885416666652e+02 2.030531920331790161e+02 2.030565055941357855e+02 2.030671773726851939e+02 2.030732836612654353e+02 2.030748832947530786e+02 2.030721016589506007e+02 2.030767872299382759e+02 2.030823124035493947e+02 2.030878949652777976e+02 2.030942582947530752e+02 2.031037721836419507e+02 2.031014134837962786e+02 2.030962278163580379e+02 2.030954152199074088e+02 2.030936771797839526e+02 2.030227961033950521e+02 2.030233767361111177e+02 2.030337514467592541e+02 2.030377319637345579e+02 2.030435604745370313e+02 2.030466276041666731e+02 2.030463266782407459e+02 2.030546223958333201e+02 2.030503428819444309e+02 2.030563126929012299e+02 2.030518238811728224e+02 2.030499739583333110e+02 2.030441951195987826e+02 2.030454017168209759e+02 2.030436149691358025e+02 2.030498461612654353e+02 2.030369034529321084e+02 2.030251548032407243e+02 2.030140388695987781e+02 2.030198341049382691e+02 2.030277965856481615e+02 2.030281727430555634e+02 2.030317925347222285e+02 2.030212837577160485e+02 2.030047299382715948e+02 2.030008979552468986e+02 2.030026538387345738e+02 2.030043219521604954e+02 2.030156351273147948e+02 2.030200602816358071e+02 2.030146686921296464e+02 2.028776350308641838e+02 2.028750250771604726e+02 2.028803583140432067e+02 2.028826085069444503e+02 2.028776557677469157e+02 2.028829292052469100e+02 2.028733473186728418e+02 2.028655372299382691e+02 2.028435556520061596e+02 2.028190639467592575e+02 2.028061361882716085e+02 2.027977387152777737e+02 2.028090774498456881e+02 2.028018885030864169e+02 2.027897747878086250e+02 2.027842370756172841e+02 2.027720524691358150e+02 2.027515224729938268e+02 2.027364973958333110e+02 2.027208299575617332e+02 2.027014236111111245e+02 2.026863874421296146e+02 2.026848832947530923e+02 2.026755237268518499e+02 2.026634346064814736e+02 2.026486357060184957e+02 2.026386140046296305e+02 2.026415075231481353e+02 2.026359090470679121e+02 2.026368856095679121e+02 2.024890538194444503e+02 2.024778949652777840e+02 2.024936067708333383e+02 2.025044854359567807e+02 2.025286222029320982e+02 2.025475964506172772e+02 2.025462369791666788e+02 2.025560440779321141e+02 2.025607981288580390e+02 2.025693909143518567e+02 2.025661357060185424e+02 2.025712268518518329e+02 2.025720910493827205e+02 2.025578144290123248e+02 2.025519936342592757e+02 2.025506635802469191e+02 2.025475101273148084e+02 2.025594892939814997e+02 2.025600554591049445e+02 2.025634799382715983e+02 2.025674300733024893e+02 2.025688695987654455e+02 2.025746103395061652e+02 2.025697468171296407e+02 2.025830951003086398e+02 2.025923852237654330e+02 2.026085744598765359e+02 2.026132445987654478e+02 2.026247439236111347e+02 2.026289776234567910e+02 2.026535889274691442e+02 2.026009611304012310e+02 2.026172289737654353e+02 2.026486993634259193e+02 2.026617930169753095e+02 2.026821667631172943e+02 2.026882031250000011e+02 2.027021349344135785e+02 2.027021002121913398e+02 2.027036361882716164e+02 2.027190856481481376e+02 2.027225742669753288e+02 2.027280367476851950e+02 2.027348659336419701e+02 2.027411800733024734e+02 2.027431303047839322e+02 2.027589371141975221e+02 2.027604538001543233e+02 2.027804571759259034e+02 2.027938445216049388e+02 2.028204769483024847e+02 2.028333984374999943e+02 2.028307793209876593e+02 2.028338816550925969e+02 2.028311217206789934e+02 2.028380468750000034e+02 2.028553708526234516e+02 2.028737282986110984e+02 2.028788001543209703e+02 2.028895920138888869e+02 2.028807566550925969e+02 2.028860532407407504e+02 2.028513237847222115e+02 2.028762673611111040e+02 2.029000221836419655e+02 2.029170370370370335e+02 2.029312466242284074e+02 2.029407634066357957e+02 2.029427338927469293e+02 2.029524884259259352e+02 2.029620399305555338e+02 2.029592385223765518e+02 2.029480869020061959e+02 2.029382306134259295e+02 2.029335353973765450e+02 2.029267843364197574e+02 2.029187663966049229e+02 2.029111236496913762e+02 2.028982161458333167e+02 2.028811554783950726e+02 2.028728911072530821e+02 2.028594526427469305e+02 2.028488652584876490e+02 2.028294449266975050e+02 2.028360985725308581e+02 2.028422989004629642e+02 2.028424459876543153e+02 2.028389144483024893e+02 2.028385286458333212e+02 2.028369304591049342e+02 2.028401060956790047e+02 2.028337480709876388e+02 2.027474705825617320e+02 2.027656939621913637e+02 2.027718176118827103e+02 2.027667240547839640e+02 2.027576528742283983e+02 2.027509047067901236e+02 2.027414404899691363e+02 2.027393904320987588e+02 2.027322058256172852e+02 2.027244227430555554e+02 2.027101157407407186e+02 2.026808748070987747e+02 2.026443205054012253e+02 2.026069565007716164e+02 2.025961439043209964e+02 2.025880637538580231e+02 2.025710619212963195e+02 2.025689496527777749e+02 2.025544618055555475e+02 2.025469540895061868e+02 2.025448664158950578e+02 2.025458256172839526e+02 2.025427493248456869e+02 2.025438932291666845e+02 2.025373345871913671e+02 2.025220712770061766e+02 2.025027358217592450e+02 2.024899966242283824e+02 2.024791854745370472e+02 2.024685392554012253e+02 2.024518552276234402e+02 2.022832320601851848e+02 2.022929152199074281e+02 2.023127608989197483e+02 2.023096532600308421e+02 2.023123500192901076e+02 2.023026707175925765e+02 2.022859948881172727e+02 2.022701658950617229e+02 2.022543812692901213e+02 2.022210083912036964e+02 2.022047690007715914e+02 2.021982793209876377e+02 2.021868156828703604e+02 2.021825887345679007e+02 2.021776504629629585e+02 2.021791141010802448e+02 2.021812162422839378e+02 2.021807918595679041e+02 2.021854349922839731e+02 2.021844593942901440e+02 2.021954938271605045e+02 2.022026692708333258e+02 2.022195061728395160e+02 2.022258087384259397e+02 2.022484389467592507e+02 2.022672038966049399e+02 2.022822641782407231e+02 2.022942399691358162e+02 2.023029615162036805e+02 2.023199922839506257e+02 2.023405290316358105e+02 2.023696711033950635e+02 2.023869709683642100e+02 2.024278390239197449e+02 2.024499797453703707e+02 2.024568807870370222e+02 2.024813517554012208e+02 2.024875149498456892e+02 2.025039665316357969e+02 2.025278269675926026e+02 2.025485894097222115e+02 2.025748292824073928e+02 2.025950747492283881e+02 2.026261564429012481e+02 2.026462495177469236e+02 2.026682865547839469e+02 2.027023818479938200e+02 2.027403395061728588e+02 2.027624059606481524e+02 2.028289409722222274e+02 2.028644179205246871e+02 2.028917703510802255e+02 2.029297945601852007e+02 2.029621373456790252e+02 2.029907605131172943e+02 2.030324040316358207e+02 2.030754566936728338e+02 2.031175983796296407e+02 2.031445650077160678e+02 2.031662852044753151e+02 2.031968798225308603e+02 2.032895630787037078e+02 2.033146180555555702e+02 2.033461689814814690e+02 2.033608256172839504e+02 2.033892322530864192e+02 2.034034886188271400e+02 2.034159283371913602e+02 2.034219806134259443e+02 2.034386463155863964e+02 2.034546985918209998e+02 2.034752946566358105e+02 2.034831833526234561e+02 2.034938614004629471e+02 2.035118957368827068e+02 2.035117867476851643e+02 2.035161453510802403e+02 2.035157952353395103e+02 2.035173808834876752e+02 2.035089699074074190e+02 2.034966710069444389e+02 2.034976268325617355e+02 2.034946754436728327e+02 2.034927343749999977e+02 2.034837567515432113e+02 2.034788797260802369e+02 2.034632036072530923e+02 2.034516059027777715e+02 2.034528592785493686e+02 2.034494285300926038e+02 2.034484722222222217e+02 2.034422656250000045e+02 2.033803245563271673e+02 2.033900274884259147e+02 2.034007325424382771e+02 2.033978930362654296e+02 2.033928732638889016e+02 2.034030632716049354e+02 2.034158545524691419e+02 2.034177136381172772e+02 2.034060566165123305e+02 2.034122048611110927e+02 2.034145114776234493e+02 2.034173615933642054e+02 2.034059968171296191e+02 2.033897593557098560e+02 2.033806640624999886e+02 2.033643643904321152e+02 2.033514930555555509e+02 2.033452435378086420e+02 2.033330107060185128e+02 2.033308844521604897e+02 2.032992607060185151e+02 2.032839646026234561e+02 2.032806505594135729e+02 2.032742148919753049e+02 2.032669121334876650e+02 2.032513483796296327e+02 2.032431442901234391e+02 2.032322482638888914e+02 2.032240461033950680e+02 2.032227363040123578e+02 2.032246277006173045e+02 2.031600274884259250e+02 2.031607855902777828e+02 2.031611000192901031e+02 2.031620905671296100e+02 2.031680627893518647e+02 2.031592259837962899e+02 2.031553583140432124e+02 2.031570240162037067e+02 2.031551451581790104e+02 2.031451398533950510e+02 2.031398630401234584e+02 2.031423278356481319e+02 2.031408256172839515e+02 2.031401220100308649e+02 2.031381843171296282e+02 2.031325969328703707e+02 2.031160677083333326e+02 2.031214703896604874e+02 2.031169372106481319e+02 2.031267920524691419e+02 2.031211916473765484e+02 2.031333569637345704e+02 2.031348485725308421e+02 2.031255806327160371e+02 2.031386709104938291e+02 2.031429292052469293e+02 2.031450385802469043e+02 2.031444651813271776e+02 2.031530155285493890e+02 2.031629185956790025e+02 2.031696214313271582e+02 2.031773408564814929e+02 2.031808265817901145e+02 2.031718716242284017e+02 2.031662374614197688e+02 2.031647960069444423e+02 2.031742934992283836e+02 2.031799512924382611e+02 2.031743614969135763e+02 2.031753313078703798e+02 2.031669121334876422e+02 2.031561419753086284e+02 2.031336805555555429e+02 2.031210392554012287e+02 2.031174189814814781e+02 2.031178375771604863e+02 2.031158965084876797e+02 2.031244314236110995e+02 2.031223842592592348e+02 2.031326620370370222e+02 2.031269849537036976e+02 2.031291777584876570e+02 2.031296532600308637e+02 2.031289457947530650e+02 2.031398514660493788e+02 2.031480107060185105e+02 2.031438715277777760e+02
3.420682918595678501e+01 3.422894048996913341e+01 3.428021556712963047e+01 3.440259886188271565e+01 3.448412953317900786e+01 3.452636332947530917e+01 3.454646219135802454e+01 3.456916280864197688e+01 3.459750723379629989e+01 3.461240788966049564e+01 3.463197675540123299e+01 3.465239342206789530e+01 3.468461564429012611e+01 3.470359085648148323e+01 3.472296826774691425e+01 3.563698591820988071e+01 3.572833863811728605e+01 3.548756124614197915e+01 3.504960503472222655e+01 3.441111882716049308e+01 3.363401861496913625e+01 3.438851032021604937e+01 3.470215326003086886e+01 3.493238570601852189e+01 3.513215181327160508e+01 3.533426215277778226e+01 3.551253568672839833e+01 3.571562065972222655e+01 3.593398485725308689e+01 3.615454185956789956e+01 3.636467206790123186e+01 3.671252941743826881e+01 3.673119695216049507e+01 3.676288966049382623e+01 3.680497540509259125e+01 3.682207465277777203e+01 3.683133150077160423e+01 3.682100597993827051e+01 3.679815345293209816e+01 3.675287471064815037e+01 3.672832513503086460e+01 3.670360387731481921e+01 3.668644772376543273e+01 3.668044319058642344e+01 3.666562596450617662e+01 3.665202160493826966e+01 3.665756606867284262e+01 3.664976466049382964e+01 3.664945842978395518e+01 3.665705054012345698e+01 3.667083863811728150e+01 3.670912905092592382e+01 3.676731577932098816e+01 3.682377025462962905e+01 3.688804012345678984e+01 3.696456307870370495e+01 3.703224199459877042e+01 3.710735773533951232e+01 3.718116512345678615e+01 3.724900655864198029e+01 3.731307629243827506e+01 3.738296392746913455e+01 3.768307146990740364e+01 3.772136477623456585e+01 3.773658371913580112e+01 3.774306375385803136e+01 3.777791907793209703e+01 3.781140914351851734e+01 3.785118007330247281e+01 3.791756751543209703e+01 3.798777150848765416e+01 3.807796055169752947e+01 3.816430362654320874e+01 3.824413290895061834e+01 3.831619839891975232e+01 3.838131462191358168e+01 3.844703703703704178e+01 3.851061776620370125e+01 3.857108699845678501e+01 3.863151041666666430e+01 3.868358555169752577e+01 3.874440297067901184e+01 3.880946614583333343e+01 3.888610773533950749e+01 3.896720100308641577e+01 3.905967062114196864e+01 3.914925588348765473e+01 3.923649498456789786e+01 3.933234133873456528e+01 3.942910059799382338e+01 3.952796440972222314e+01 3.962945842978394495e+01 3.973088396990740989e+01 4.032548225308642031e+01 4.035335599922839833e+01 4.039424334490740875e+01 4.043815489969135513e+01 4.047897280092593064e+01 4.053899498456790695e+01 4.061308593750000284e+01 4.067589699074073906e+01 4.075178915895061493e+01 4.082604745370370125e+01 4.090430555555555969e+01 4.096955825617283864e+01 4.105726273148147953e+01 4.112031057098765530e+01 4.117006028163580567e+01 4.121902681327160423e+01 4.127066068672839805e+01 4.131965904706790127e+01 4.138047501929012384e+01 4.143632860725308120e+01 4.151065200617284034e+01 4.159287808641975204e+01 4.166171489197530775e+01 4.172801745756173375e+01 4.178430893132716051e+01 4.183776427469135939e+01 4.188159963348765302e+01 4.192820891203703582e+01 4.198076195987654557e+01 4.202275559413580197e+01 4.205534336419753316e+01 4.224383487654321101e+01 4.228299382716048882e+01 4.231705439814814440e+01 4.233736400462963445e+01 4.236529079861111313e+01 4.238596209490741273e+01 4.241508921682098787e+01 4.244634789737654756e+01 4.247859519675925810e+01 4.250158468364197262e+01 4.252202883873457040e+01 4.254742091049382680e+01 4.257394193672839577e+01 4.260903549382715738e+01 4.263300588348765530e+01 4.266732349537036839e+01 4.269497347608024995e+01 4.272632908950617292e+01 4.275562499999999488e+01 4.278119068287036697e+01 4.280855661651234101e+01 4.284879629629629250e+01 4.289089361496913710e+01 4.292547501929012554e+01 4.296241898148147698e+01 4.300355420524691397e+01 4.304017312885802227e+01 4.307568913966048996e+01 4.311619164737653875e+01 4.313584394290123214e+01 4.316551408179012839e+01 4.327957175925926236e+01 4.330573832947531088e+01 4.332493248456790269e+01 4.332706066743826767e+01 4.331870563271604624e+01 4.332065972222222427e+01 4.332264033564814554e+01 4.332567611882716108e+01 4.333300781250000000e+01 4.332861352237654273e+01 4.333226273148147811e+01 4.332414930555555799e+01 4.331976803626542960e+01 4.331832561728394637e+01 4.332126687885802596e+01 4.332886718749999488e+01 4.334103346836419490e+01 4.334689043209876758e+01 4.336776668595678785e+01 4.338050733024691397e+01 4.338301986882716221e+01 4.340590856481481552e+01 4.341875675154321357e+01 4.344637827932098872e+01 4.346697337962963559e+01 4.349284432870370409e+01 4.352118103780863834e+01 4.354661988811728435e+01 4.356664158950616894e+01 4.358558545524691397e+01 4.360227671682098816e+01 4.364081066743827364e+01 4.367647569444444144e+01 4.367860098379629363e+01 4.367457513503086375e+01 4.367317515432098674e+01 4.366986738040123583e+01 4.366284866898148209e+01 4.367278645833333428e+01 4.367058352623456585e+01 4.366735339506173119e+01 4.366192226080246996e+01 4.364998601466049166e+01 4.363899546682098674e+01 4.362756606867284148e+01 4.361190007716049166e+01 4.359723427854938649e+01 4.357962191358024739e+01 4.355599054783950663e+01 4.352257908950617349e+01 4.349644193672839521e+01 4.345629918981481410e+01 4.341141493055555856e+01 4.332860773533951004e+01 4.327952208719135996e+01 4.323715615354938535e+01 4.320224488811728492e+01 4.316054108796296163e+01 4.310717206790123868e+01 4.303293209876542846e+01 4.296383342978394637e+01 4.261706500771605022e+01 4.264822048611111427e+01 4.265486448688271537e+01 4.263703559027777601e+01 4.263261236496913398e+01 4.264298611111111370e+01 4.265323495370370210e+01 4.265550636574074161e+01 4.265887152777778368e+01 4.267716097608024484e+01 4.269702401620369869e+01 4.270622058256172693e+01 4.272016637731481126e+01 4.275171585648148209e+01 4.276946759259259068e+01 4.279418209876543244e+01 4.282319203317901213e+01 4.284991174768518363e+01 4.286609905478395177e+01 4.289120515046296589e+01 4.290511525848765473e+01 4.293182677469135911e+01 4.294400077160494078e+01 4.295187017746913227e+01 4.296855275848765388e+01 4.298912326388889227e+01 4.299809317129629704e+01 4.301323591820987957e+01 4.302060860339506121e+01 4.303728346836419405e+01 4.303926215277777345e+01 4.308228684413580112e+01 4.311972897376543301e+01 4.313392216435185134e+01 4.313553964120370665e+01 4.313703703703703951e+01 4.314597366898148323e+01 4.315513503086419433e+01 4.317673466435184793e+01 4.318426167052469111e+01 4.318808545524691311e+01 4.319159481095678643e+01 4.320184076003086204e+01 4.321157937885802625e+01 4.322637731481481893e+01 4.323160590277777970e+01 4.323582851080247025e+01 4.323039930555555799e+01 4.324129774305555429e+01 4.325111689814814753e+01 4.327056230709876417e+01 4.328657552083333115e+01 4.330139033564815065e+01 4.331325135030864004e+01 4.332508198302468827e+01 4.333458574459876900e+01 4.335855613425925981e+01 4.338367332175926094e+01 4.341029176311728577e+01 4.342424093364197546e+01 4.344703896604938365e+01 4.346935233410493993e+01 4.353430507330246968e+01 4.358083188657407447e+01 4.361430217978395518e+01 4.364187692901234072e+01 4.367335021219135882e+01 4.370571132330246655e+01 4.375468460648147584e+01 4.379162133487654529e+01 4.383680603780864260e+01 4.389572289737654387e+01 4.395435715663580112e+01 4.400153163580247195e+01 4.403808641975308547e+01 4.408771412037036441e+01 4.414805796682098560e+01 4.419834346064814667e+01 4.424746238425925782e+01 4.429992959104938421e+01 4.435457272376543614e+01 4.441369309413580169e+01 4.448209587191357883e+01 4.457217206790123498e+01 4.462051793981481751e+01 4.467529706790123356e+01 4.472341483410493623e+01 4.476925009645061948e+01 4.482186535493827506e+01 4.487761911651234215e+01 4.492479986496913114e+01 4.495219039351851364e+01 4.508882137345679553e+01 4.513267361111110887e+01 4.516163483796296418e+01 4.518986738040123186e+01 4.522632716049383106e+01 4.524617091049383077e+01 4.529570023148147584e+01 4.533712239583333314e+01 4.537429012345678814e+01 4.543097608024691425e+01 4.547044077932098816e+01 4.552004484953703667e+01 4.555352719907406822e+01 4.558902633101851620e+01 4.562266251929012384e+01 4.566886236496913654e+01 4.571415798611111114e+01 4.575771460262345869e+01 4.579991608796296276e+01 4.582334153163580481e+01 4.585968749999999972e+01 4.589848524305555344e+01 4.594233362268518306e+01 4.597301649305555316e+01 4.599891734182098446e+01 4.603304542824074019e+01 4.605958815586419774e+01 4.608161024305555742e+01 4.610254050925926350e+01 4.612969666280864089e+01 4.616249276620370523e+01 4.622313560956789757e+01 4.626993248456790297e+01 4.629299913194444827e+01 4.631718798225308120e+01 4.634519531249999602e+01 4.638185426311728321e+01 4.641255979938271281e+01 4.645025270061728406e+01 4.647363233024691453e+01 4.649711612654320447e+01 4.652171199845679439e+01 4.654193190586420315e+01 4.657739438657407760e+01 4.660491849922839691e+01 4.661935667438271480e+01 4.663628472222222143e+01 4.665166618441357826e+01 4.667942515432098816e+01 4.670244839891975630e+01 4.672908757716049166e+01 4.675608265817901099e+01 4.678425057870370551e+01 4.680438946759259267e+01 4.682751784336419831e+01 4.685006606867284518e+01 4.687961757330246826e+01 4.691600501543209845e+01 4.694297067901234755e+01 4.697936294367283949e+01 4.700491801697530292e+01 4.703047067901234612e+01 4.706809027777777743e+01 4.710079764660493851e+01 4.712291136188271423e+01 4.713830922067901241e+01 4.716264515817901071e+01 4.717975308641975118e+01 4.718203800154321215e+01 4.718980420524691510e+01 4.718500482253086403e+01 4.720170958719135257e+01 4.723963686342592894e+01 4.726786988811728207e+01 4.729711564429012327e+01 4.731276475694443917e+01 4.733653115354938024e+01 4.737056327160494362e+01 4.740396267361111171e+01 4.743848765432098702e+01 4.747736352237654245e+01 4.750969810956790695e+01 4.754768614969135854e+01 4.761145302854938421e+01 4.766068238811728719e+01 4.770613329475308007e+01 4.775696614583333144e+01 4.780658564814815037e+01 4.785644290123457267e+01 4.791927035108025024e+01 4.796758584104937739e+01 4.802262779706789786e+01 4.819010609567901326e+01 4.822596402391975090e+01 4.829318479938271480e+01 4.834389708719135825e+01 4.838816599151234499e+01 4.842564863040123413e+01 4.847106626157407305e+01 4.853178964120370154e+01 4.858956983024691567e+01 4.864959442515431931e+01 4.870375819830246655e+01 4.876001494984568296e+01 4.881287519290123100e+01 4.886844810956790042e+01 4.893238281249999488e+01 4.898807677469135768e+01 4.903823350694444372e+01 4.909005883487654387e+01 4.915827305169753458e+01 4.922338541666666600e+01 4.928231481481481779e+01 4.934031298225308149e+01 4.939846739969136280e+01 4.947736979166666060e+01 4.954947675540123697e+01 4.961010995370369869e+01 4.966135030864197120e+01 4.971717158564814554e+01 4.977681375385802198e+01 4.982486352237654614e+01 4.986732397762345670e+01 5.000528838734567927e+01 5.004345341435185190e+01 5.007535686728395063e+01 5.010674382716049280e+01 5.013447289737653989e+01 5.016311246141975744e+01 5.018895302854937768e+01 5.021447193287036725e+01 5.024810619212963303e+01 5.028050974151234698e+01 5.031773437500000057e+01 5.036077112268518619e+01 5.039307773919752975e+01 5.041241078317901270e+01 5.045680410879629108e+01 5.049112461419753117e+01 5.050961853780864175e+01 5.054605661651234527e+01 5.057152247299382708e+01 5.058743537808641832e+01 5.061249469521604993e+01 5.065500241126542846e+01 5.069494791666666345e+01 5.072855131172839549e+01 5.075623360339506007e+01 5.078027729552469083e+01 5.082466194058641662e+01 5.085985435956789757e+01 5.090889853395061948e+01 5.094667438271604709e+01 5.097602334104938393e+01 5.100549334490740705e+01 5.104148919753086489e+01 5.109101514274691880e+01 5.112593991126543358e+01 5.115107204861111256e+01 5.116865692515432329e+01 5.119092496141975346e+01 5.121484760802469083e+01 5.123655912422839975e+01 5.125564718364197603e+01 5.126562403549382196e+01 5.127258487654321328e+01 5.128239535108024683e+01 5.128419174382716506e+01 5.127839120370370551e+01 5.127910542052469367e+01 5.129306278935185048e+01 5.128153067129629505e+01 5.129017843364197660e+01 5.129859567901234385e+01 5.130771990740741018e+01 5.130975212191358281e+01 5.130977527006172778e+01 5.131107108410493822e+01 5.132592158564815321e+01 5.133338541666666544e+01 5.134896267361110489e+01 5.135240210262345784e+01 5.135780044367283637e+01 5.135446566358024256e+01 5.126851514274691368e+01 5.129280092592592410e+01 5.133570987654320561e+01 5.134486979166666742e+01 5.134462818287037322e+01 5.134760947145061749e+01 5.135812789351851393e+01 5.137809944058641776e+01 5.139298659336419917e+01 5.140195987654320930e+01 5.142672501929012441e+01 5.145210551697530832e+01 5.147922067901235010e+01 5.149956259645061607e+01 5.152735050154321073e+01 5.156194926697530434e+01 5.158301359953703269e+01 5.161806857638888602e+01 5.164331211419753487e+01 5.167220679012345386e+01 5.171216965663580112e+01 5.174042197145062261e+01 5.175810619212962393e+01 5.179136043595678984e+01 5.182668499228395120e+01 5.185860677083333314e+01 5.189449749228394637e+01 5.191125482253086432e+01 5.194547067901234527e+01 5.196270109953703553e+01 5.199999710648148010e+01 5.208122636959876672e+01 5.211029320987654501e+01 5.214548707561728946e+01 5.218583767361111114e+01 5.220618730709876587e+01 5.223898871527777743e+01 5.226788146219136166e+01 5.228915509259259409e+01 5.231376060956790042e+01 5.233286458333333258e+01 5.236169560185184935e+01 5.237011284722222371e+01 5.238680700231481779e+01 5.240570698302469310e+01 5.242677420910494135e+01 5.245346595293209901e+01 5.247553771219135399e+01 5.249437114197530718e+01 5.250836033950617576e+01 5.252418113425925839e+01 5.255310570987654017e+01 5.257806809413580851e+01 5.260648582175925725e+01 5.261613088348765643e+01 5.263435956790122816e+01 5.265539641203703525e+01 5.268119598765431988e+01 5.271422887731481666e+01 5.274461419753086489e+01 5.276439477237654785e+01 5.278128279320987559e+01 5.272513213734568183e+01 5.275475839120370125e+01 5.277207417052468941e+01 5.277764949845678899e+01 5.278050829475309058e+01 5.277250626929012611e+01 5.277167052469135911e+01 5.278198688271604766e+01 5.277586226851852302e+01 5.277393711419752975e+01 5.276449218750000369e+01 5.276715711805555742e+01 5.278154706790122930e+01 5.279549961419752435e+01 5.280413869598766041e+01 5.281876880787037010e+01 5.282263213734567842e+01 5.282406346450617463e+01 5.283730372299382338e+01 5.283121141975308888e+01 5.284020495756173119e+01 5.284620322145062232e+01 5.284357590663580595e+01 5.284709056712962649e+01 5.284815731095678615e+01 5.285637393904321613e+01 5.286419463734567614e+01 5.287957320601852018e+01 5.289184944058641946e+01 5.291280189043209958e+01 5.282888937114197603e+01 5.286885802469136308e+01 5.289536458333333258e+01 5.293401234567900815e+01 5.297432532793209958e+01 5.300335165895061351e+01 5.304126205632715596e+01 5.304836757330246400e+01 5.306941647376543614e+01 5.310116657021605135e+01 5.312527488425926236e+01 5.315861014660493566e+01 5.317968846450617804e+01 5.319563271604938137e+01 5.322256558641975488e+01 5.322910252700617662e+01 5.324907310956789530e+01 5.328615065586419774e+01 5.332133873456789530e+01 5.334762056327160451e+01 5.337787422839505780e+01 5.341238474151234072e+01 5.346053964120370239e+01 5.350875723379629534e+01 5.353771122685185446e+01 5.358206500771605363e+01 5.361645688657407760e+01 5.367271604938271423e+01 5.372424672067901241e+01 5.376619984567901156e+01 5.381451340663579685e+01 5.387760416666666430e+01 5.395401186342592581e+01 5.401123987268518079e+01 5.407815104166666487e+01 5.410930025077160366e+01 5.416311005015431590e+01 5.419928819444444201e+01 5.425043740354938393e+01 5.429495081018518476e+01 5.433256896219135257e+01 5.437760175540123697e+01 5.444130883487654415e+01 5.448688705632716278e+01 5.451579619984568126e+01 5.456142071759258982e+01 5.460145833333333343e+01 5.464831066743827392e+01 5.470543836805555316e+01 5.477116849922839492e+01 5.484483410493827193e+01 5.490886622299382935e+01 5.495034673996913455e+01 5.499668692129629477e+01 5.505143614969135513e+01 5.511243152006172608e+01 5.517597897376543159e+01 5.523852382330246513e+01 5.528517843364197404e+01 5.532201003086419888e+01 5.536295476466049337e+01 5.541485243055555543e+01 5.550915702160493481e+01 5.556560667438271395e+01 5.563190152391975118e+01 5.568733024691358224e+01 5.573609616126543642e+01 5.577850212191358281e+01 5.581613184799382310e+01 5.584093171296296276e+01 5.586290412808642003e+01 5.589564043209876587e+01 5.591881413966049053e+01 5.594584008487654359e+01 5.597570408950617349e+01 5.599931954089506547e+01 5.603038339120370637e+01 5.606359519675925895e+01 5.607395929783950805e+01 5.609787374614197120e+01 5.612098476080247167e+01 5.613476658950617804e+01 5.614638310185185333e+01 5.614534288194444400e+01 5.616451147762345641e+01 5.620380304783950720e+01 5.623674382716049536e+01 5.626104600694444713e+01 5.629622444058642117e+01 5.633122106481481239e+01 5.636213589891975317e+01 5.638914930555555571e+01 5.638747106481481808e+01 5.644950135030863692e+01 5.650467399691358139e+01 5.654077112268518590e+01 5.657665364583333201e+01 5.659782262731481239e+01 5.662133632330246513e+01 5.664476948302469594e+01 5.664924334490741131e+01 5.664333622685185077e+01 5.660509982638888715e+01 5.656487606095679155e+01 5.650838734567901156e+01 5.647234905478394751e+01 5.645659770447530690e+01 5.647258198302468912e+01 5.648831066743827023e+01 5.650003520447530292e+01 5.651381365740740392e+01 5.652408805941357883e+01 5.655266830632715624e+01 5.658502845293209305e+01 5.662411747685185048e+01 5.665276668595679155e+01 5.665421199845678757e+01 5.666590856481481353e+01 5.666999324845678387e+01 5.667309558256172863e+01 5.667517168209876388e+01 5.668655044367284290e+01 5.667996383101851876e+01 5.658777536651234641e+01 5.662907455632716136e+01 5.666680989583333172e+01 5.668162374614198029e+01 5.669421392746913568e+01 5.670326967592592382e+01 5.670591145833333258e+01 5.668601851851852302e+01 5.665963059413579828e+01 5.662691647376543358e+01 5.660679398148148067e+01 5.658892602237654756e+01 5.658828655478394865e+01 5.660121238425925583e+01 5.660539496527777459e+01 5.661156539351851791e+01 5.662582272376543102e+01 5.665624710648148010e+01 5.668459346064815207e+01 5.670075569058641918e+01 5.672626736111111256e+01 5.676567129629629704e+01 5.679627700617283637e+01 5.683188319830247082e+01 5.687078028549382935e+01 5.691188802083333798e+01 5.695813946759259494e+01 5.699708574459877042e+01 5.703980468749999488e+01 5.708872299382716164e+01 5.714612943672839407e+01 5.730285976080246968e+01 5.738383053626543528e+01 5.745982880015431959e+01 5.751921440972222399e+01 5.757836709104938677e+01 5.762124855324073991e+01 5.768846884645061834e+01 5.775665075231481893e+01 5.782142650462962763e+01 5.788695553626543244e+01 5.795127266589506121e+01 5.803285252700617036e+01 5.811006558641975062e+01 5.819663290895061891e+01 5.829777633101851819e+01 5.838834442515432244e+01 5.847451437114197148e+01 5.855591049382715596e+01 5.872271846064814582e+01 5.881062837577160707e+01 5.888960551697530832e+01 5.896628182870369983e+01 5.904073013117283608e+01 5.911007137345679041e+01 5.918991657021604880e+01 5.927780478395061436e+01 5.938523051697530519e+01 5.946446903935185446e+01 5.955775077160493680e+01 5.964741222993826852e+01 5.991876929012345698e+01 5.998076340663580197e+01 6.005524209104938649e+01 6.011639033564814838e+01 6.017730661651233959e+01 6.024116657021604482e+01 6.029956452546296219e+01 6.035185233410493311e+01 6.039989245756173375e+01 6.045814429012345670e+01 6.051150800540123242e+01 6.053767071759259011e+01 6.057582609953703923e+01 6.060982735339506178e+01 6.064170235339506121e+01 6.068185426311728037e+01 6.071633969907407646e+01 6.075240644290123271e+01 6.078887586805554832e+01 6.082109423225308120e+01 6.086363811728395490e+01 6.089192708333333570e+01 6.092649160879629022e+01 6.093392554012346096e+01 6.092908468364196750e+01 6.093145254629629903e+01 6.094433641975308547e+01 6.096482349537036782e+01 6.098509259259258641e+01 6.100031732253086858e+01 6.101826774691358679e+01 6.103705054012345954e+01 6.109666329089505865e+01 6.114854890046296276e+01 6.115891444830247536e+01 6.118038387345679752e+01 6.120701581790123669e+01 6.123853395061728833e+01 6.126309510030864658e+01 6.128703269675926180e+01 6.130494164737653762e+01 6.131541425540123669e+01 6.132665219907407561e+01 6.133420862268518192e+01 6.133355372299382680e+01 6.133070264274692107e+01 6.134409143518517737e+01 6.135785734953703496e+01 6.137829330632716562e+01 6.139669753086419490e+01 6.139085310570987275e+01 6.138786024305556310e+01 6.138138599537037265e+01 6.138797984182099299e+01 6.138490210262346380e+01 6.138258053626543642e+01 6.138737509645061152e+01 6.140819444444444741e+01 6.142815827546296248e+01 6.142948447145062119e+01 6.145415075231481694e+01 6.146539882330246485e+01 6.148260368441357571e+01 6.152529755015432045e+01 6.155205343364198001e+01 6.156291377314813928e+01 6.159120804398148152e+01 6.161536120756172608e+01 6.164925974151233845e+01 6.168210599922839776e+01 6.169996334876543642e+01 6.171621286651235039e+01 6.174015480324074190e+01 6.176095100308642571e+01 6.179547309027777402e+01 6.185062885802469168e+01 6.186970871913580083e+01 6.190101948302469026e+01 6.193366174768518562e+01 6.200288676697530832e+01 6.205134693287036640e+01 6.208471547067900786e+01 6.212080198688271082e+01 6.216991464120370381e+01 6.220263117283950294e+01 6.224132378472221916e+01 6.228459394290123896e+01 6.232143229166667453e+01 6.236127266589506490e+01 6.238436535493826796e+01 6.243189139660493225e+01 6.248635320216049394e+01 6.258386091820987929e+01 6.263361448688272048e+01 6.266735821759259295e+01 6.269926408179013322e+01 6.273302758487653819e+01 6.276591290509259835e+01 6.280434027777777573e+01 6.282811149691357855e+01 6.285545090663580226e+01 6.287654755015432073e+01 6.289000868055556026e+01 6.289602912808641832e+01 6.291380642361110631e+01 6.292473813657407788e+01 6.295034095293209475e+01 6.295249710648147357e+01 6.299045428240741273e+01 6.301230179398147868e+01 6.304185956790122702e+01 6.305914448302468855e+01 6.307504726080247082e+01 6.310069589120369926e+01 6.311827064043209390e+01 6.313656153549383276e+01 6.317033275462963360e+01 6.319305314429011844e+01 6.321216820987653762e+01
9.658194926697531102e+00 9.576912133487653023e+00 9.445149016203702175e+00 9.136562982253085607e+00 8.972120466820987517e+00 8.933057002314814810e+00 8.935105131172839776e+00 8.928906732253086176e+00 8.927541473765431945e+00 8.937268036265432869e+00 8.949945987654322366e+00 8.957315779320987659e+00 8.957428144290123129e+00 8.971052758487653378e+00 8.971725019290122560e+00 9.068959297839505496e+00 9.126414930555556637e+00 9.167779224537037308e+00 9.104228395061729984e+00 8.939297357253085607e+00 8.745361207561728634e+00 8.722142650462963331e+00 8.774770929783949569e+00 8.811567804783949853e+00 8.862129147376544225e+00 8.911211902006172636e+00 8.987123842592593448e+00 8.996213348765433437e+00 9.055506847993827435e+00 9.116598668981481524e+00 9.136565875771605505e+00 9.489763695987655012e+00 9.410008198302469040e+00 9.346467013888888786e+00 9.293673321759259309e+00 9.302051986882716506e+00 9.293245081018518761e+00 9.310493344907408542e+00 9.298600019290121921e+00 9.307473476080247110e+00 9.314640721450617278e+00 9.326933352623456130e+00 9.318002025462963189e+00 9.300640432098767008e+00 9.301296778549382083e+00 9.314922357253086815e+00 9.285948591820988085e+00 9.264919945987655225e+00 9.265939911265432372e+00 9.262559799382716008e+00 9.255552662037038303e+00 9.228652102623456699e+00 9.180433063271605576e+00 9.174743923611112351e+00 9.156893807870369884e+00 9.148321277006173702e+00 9.140885416666666430e+00 9.109857735339506490e+00 9.104778645833334849e+00 9.088967978395061209e+00 9.093356481481482234e+00 9.087331693672840771e+00 9.365013503086418112e+00 9.290326967592593022e+00 9.241919849537037379e+00 9.180611979166666714e+00 9.130322627314814810e+00 9.091901523919752037e+00 9.065349151234567415e+00 9.039477237654320874e+00 9.049226466049383077e+00 9.027831307870370026e+00 8.980014949845678274e+00 8.975587384259258172e+00 8.977266107253086602e+00 8.969967689043208736e+00 8.973111979166667140e+00 8.981192611882715227e+00 8.991434702932098233e+00 8.973998360339507485e+00 8.990014949845679837e+00 8.973804976851852189e+00 8.974660976080246044e+00 8.956852334104937086e+00 8.922430073302470177e+00 8.901059992283951061e+00 8.908380594135802966e+00 8.909866415895061564e+00 8.911880787037036455e+00 8.883575906635803321e+00 8.875115258487653591e+00 8.883994502314815023e+00 8.885203993055556637e+00 9.289972993827161574e+00 9.253588927469134973e+00 9.145214602623456202e+00 9.081959876543209020e+00 9.043806423611110645e+00 9.014251543209876871e+00 8.951672453703704235e+00 8.951859567901234271e+00 8.919971547067900630e+00 8.922690007716049365e+00 8.901797357253085963e+00 8.924755497685184835e+00 8.904708719135802752e+00 8.907004243827159939e+00 8.908379629629628482e+00 8.917976466049383433e+00 8.914794077932098659e+00 8.920788483796297186e+00 8.906697048611111001e+00 8.895257040895060641e+00 8.888670428240741828e+00 8.861938657407407050e+00 8.864349440586419604e+00 8.867580536265432301e+00 8.880613425925925952e+00 8.872462384259259593e+00 8.869927662037037308e+00 8.866701388888889923e+00 8.848656442901233987e+00 8.840031346450617278e+00 8.864929591049383717e+00 9.061861979166666359e+00 9.044086612654322010e+00 8.958410976080246613e+00 8.915175540123456699e+00 8.876796875000000142e+00 8.868689236111110930e+00 8.885545910493826582e+00 8.878544077932099654e+00 8.870063175154321300e+00 8.869905960648148735e+00 8.880309124228395135e+00 8.873538773148148096e+00 8.880692515432098588e+00 8.863586516203703525e+00 8.854480131172838497e+00 8.851693672839505922e+00 8.867832754629629832e+00 8.836788676697532097e+00 8.854257812500000213e+00 8.848318865740742112e+00 8.853734567901234698e+00 8.838459201388889852e+00 8.819303144290122631e+00 8.807013888888889142e+00 8.810336130401234200e+00 8.810468267746912829e+00 8.809594425154321229e+00 8.817110821759259309e+00 8.774428530092592382e+00 8.797477816358023617e+00 8.803567708333332575e+00 8.894946469907406339e+00 8.905986207561729984e+00 8.851213348765432087e+00 8.822893036265432087e+00 8.809904996141975531e+00 8.801703800154321300e+00 8.842550154320987232e+00 8.835129243827159584e+00 8.820804398148148096e+00 8.837100212191359105e+00 8.813232060185184125e+00 8.820755690586420172e+00 8.829711130401234342e+00 8.803215181327159300e+00 8.819358121141975815e+00 8.822284432870370452e+00 8.778207947530862754e+00 8.788125964506173560e+00 8.776361400462961981e+00 8.774510030864197674e+00 8.786702835648148024e+00 8.771449652777777217e+00 8.765732542438271935e+00 8.755980902777778851e+00 8.751298707561728563e+00 8.754454571759259451e+00 8.734448784722221859e+00 8.743012152777778212e+00 8.738484278549382367e+00 8.724524498456789345e+00 8.723384934413580538e+00 8.814144000771603871e+00 8.791087480709876445e+00 8.755765817901234982e+00 8.730170717592592666e+00 8.721452546296296404e+00 8.732388117283949924e+00 8.752693865740740264e+00 8.730496238425926592e+00 8.744900655864197958e+00 8.755455729166666146e+00 8.750298996913580041e+00 8.765094039351852828e+00 8.762534722222222072e+00 8.760025559413580964e+00 8.768749517746913469e+00 8.782788387345679126e+00 8.791029128086419675e+00 8.777532310956789985e+00 8.797245370370369244e+00 8.789888599537036384e+00 8.789023919753086389e+00 8.790006269290122631e+00 8.796791570216049294e+00 8.803779899691358324e+00 8.803757233796295267e+00 8.771557195216049152e+00 8.780023148148147882e+00 8.793401331018518619e+00 8.812324942129629690e+00 8.823781828703705088e+00 8.725903742283950493e+00 8.716888020833334139e+00 8.688316936728394779e+00 8.684911265432099015e+00 8.663965567129629619e+00 8.669364872685184409e+00 8.661946373456789416e+00 8.673069540895061991e+00 8.676287615740740478e+00 8.647356770833333428e+00 8.647218364197529539e+00 8.650856481481481453e+00 8.678029996141974678e+00 8.644614679783950706e+00 8.632645158179013123e+00 8.637829861111111285e+00 8.618410976080246755e+00 8.628452449845678274e+00 8.638513213734567486e+00 8.630694444444444002e+00 8.644011863425925313e+00 8.623913001543209944e+00 8.643248939043211010e+00 8.651403356481480955e+00 8.637368827160493368e+00 8.626173804012344348e+00 8.647495659722222783e+00 8.641919367283950493e+00 8.646516685956790127e+00 8.626461226851851904e+00 8.662031250000000071e+00 8.679105420524692249e+00 8.665818865740741117e+00 8.617097318672840345e+00 8.609535590277777928e+00 8.598233989197531457e+00 8.598276427469135896e+00 8.607187982253087455e+00 8.588087384259258883e+00 8.611963252314815520e+00 8.616084587191359390e+00 8.616196469907407618e+00 8.633150077160493652e+00 8.615316840277776222e+00 8.597434895833332646e+00 8.594798418209876445e+00 8.585211709104939359e+00 8.605464891975307395e+00 8.603468364197530249e+00 8.612052469135802468e+00 8.592829861111111356e+00 8.583107156635803037e+00 8.565669367283950564e+00 8.551833043981480031e+00 8.567196180555555429e+00 8.575489486882716506e+00 8.549957561728394495e+00 8.536816647376543443e+00 8.534258777006172636e+00 8.574728491512344064e+00 8.563623649691358253e+00 8.568750482253086886e+00 8.615084394290123626e+00 8.583519483024691255e+00 8.533129822530863606e+00 8.499811921296295480e+00 8.479633487654322010e+00 8.480278260030864601e+00 8.478438946759258243e+00 8.473188657407408897e+00 8.467784529320988796e+00 8.464333043981481453e+00 8.449970100308641818e+00 8.430559413580247963e+00 8.450723379629629051e+00 8.455118152006173560e+00 8.442375578703703809e+00 8.436723090277778780e+00 8.421663290895061493e+00 8.428444733796295552e+00 8.436941550925926236e+00 8.424104456018518761e+00 8.403139949845678913e+00 8.415425829475307040e+00 8.427409336419753316e+00 8.423192997685184480e+00 8.424803240740741828e+00 8.417981288580246968e+00 8.401358989197531102e+00 8.396984471450616994e+00 8.397502411265431732e+00 8.396803626543210441e+00 8.481975790895061706e+00 8.426238425925925313e+00 8.352793209876542946e+00 8.359050925925926023e+00 8.371821469907407831e+00 8.397706886574074048e+00 8.375980902777778070e+00 8.388037229938271722e+00 8.394800347222222570e+00 8.352557388117284987e+00 8.398388792438270301e+00 8.360248842592593377e+00 8.368262924382715795e+00 8.388353587962962266e+00 8.398868152006173204e+00 8.359823013117283708e+00 8.344733314043210726e+00 8.356339216820986238e+00 8.350133584104938222e+00 8.362523148148147456e+00 8.343059895833334849e+00 8.359413097993826369e+00 8.348541184413580396e+00 8.328246527777778851e+00 8.336101948302468756e+00 8.345319251543209305e+00 8.350722897376543941e+00 8.340634162808640895e+00 8.363323688271604439e+00 8.348159722222222356e+00 8.316682098765431519e+00 8.323791473765432158e+00 8.306514756944444855e+00 8.240282118055556992e+00 8.280539158950617207e+00 8.294112654320986877e+00 8.310742187500000711e+00 8.314462770061727070e+00 8.279263117283949924e+00 8.285700231481481381e+00 8.293251350308642245e+00 8.287085744598766013e+00 8.308695023148148451e+00 8.273955439814814738e+00 8.286307388117283068e+00 8.293407118055556637e+00 8.285445119598765729e+00 8.282947048611111640e+00 8.278880208333331936e+00 8.242228973765431732e+00 8.253275945216049791e+00 8.263091242283950422e+00 8.251001157407406694e+00 8.238818479938270656e+00 8.252301793981480671e+00 8.254076485339506775e+00 8.239748263888889923e+00 8.237201967592593377e+00 8.248999324845678771e+00 8.226950231481481524e+00 8.215185185185184480e+00 8.194579957561728634e+00 8.197266589506172707e+00 8.165081018518518974e+00 8.162016782407407689e+00 8.188208912037037379e+00 8.196159336419752250e+00 8.189502797067900630e+00 8.191734182098764805e+00 8.180310570987654017e+00 8.192927276234566847e+00 8.191242283950616709e+00 8.175702642746912829e+00 8.165388695987653378e+00 8.157143132716049294e+00 8.166654610339506348e+00 8.171052276234567202e+00 8.141465567129628766e+00 8.149308449074073479e+00 8.121680652006173062e+00 8.123392168209877084e+00 8.143259066358025322e+00 8.159318576388889355e+00 8.147012924382716292e+00 8.111373939043209802e+00 8.095305266203704164e+00 8.085514564043210228e+00 8.082817804783951843e+00 8.082004243827160650e+00 8.057270447530864743e+00 8.070214602623455136e+00 8.047952835648148451e+00 8.048507426697531386e+00 8.048963638117283992e+00 8.021968074845679197e+00 8.012347608024692036e+00 8.038682484567900133e+00 8.035311053240739909e+00 8.029497974537036953e+00 8.013069540895061849e+00 8.003475115740739554e+00 7.988799189814815627e+00 7.998633777006172174e+00 7.993462094907407334e+00 8.009052854938270016e+00 8.008993055555555074e+00 7.974595871913580325e+00 7.956641589506172174e+00 7.997744020061728243e+00 8.000241126543208736e+00 7.970630787037037202e+00 7.941946373456790553e+00 7.961831114969136536e+00 7.964155092592593022e+00 7.949047550154320518e+00 7.933031442901234520e+00 7.914145929783951594e+00 7.918088831018518903e+00 7.937435378086419746e+00 7.931048418209876161e+00 7.915544463734567771e+00 7.918717689043210939e+00 7.929750675154321193e+00 7.890430169753086531e+00 7.850035204475308781e+00 7.881433256172838853e+00 7.915898437500000107e+00 7.912730516975308603e+00 7.911003086419753139e+00 7.906572145061729451e+00 7.908416763117284809e+00 7.920762924382716008e+00 7.918654513888888857e+00 7.916491126543210299e+00 7.907425250771604297e+00 7.901762635030864956e+00 7.899844232253085963e+00 7.887938368055555927e+00 7.877249228395061920e+00 7.908627025462963367e+00 7.895808256172839990e+00 7.887680844907407618e+00 7.879399594907407156e+00 7.900848765432098020e+00 7.875773051697531280e+00 7.874731867283951026e+00 7.856533564814814241e+00 7.861188271604938826e+00 7.861520061728396236e+00 7.843605324074074403e+00 7.849211033950617811e+00 7.832866512345677990e+00 7.848598572530863571e+00 7.840808256172839386e+00 7.734387538580246968e+00 7.714949845679012874e+00 7.752020640432098375e+00 7.762817804783950670e+00 7.758949652777777040e+00 7.803414351851851727e+00 7.798297646604939182e+00 7.798937596450617349e+00 7.791021894290123484e+00 7.802687596450618379e+00 7.811276041666666892e+00 7.834873649691358466e+00 7.817938850308641996e+00 7.818843074845679197e+00 7.831388888888888289e+00 7.826865837191357755e+00 7.797618634259259274e+00 7.829176311728394566e+00 7.819701003086419355e+00 7.812822145061729451e+00 7.788854166666665968e+00 7.788847415123456130e+00 7.804071662808642174e+00 7.814490258487653662e+00 7.803531539351851620e+00 7.793080632716048228e+00 7.807948495370371056e+00 7.783356963734567202e+00 7.788076774691358395e+00 7.792998649691357471e+00 7.648782793209877084e+00 7.640674189814815165e+00 7.669326292438272574e+00 7.692013406635802575e+00 7.702817804783951061e+00 7.717494695216048584e+00 7.725597029320988796e+00 7.705313464506173382e+00 7.738133680555556282e+00 7.753737461419754062e+00 7.729977334104938258e+00 7.705665027006172174e+00 7.723654996141974927e+00 7.725464891975308390e+00 7.722500964506173737e+00 7.724257812499999432e+00 7.718664158950616638e+00 7.685565200617284987e+00 7.693609664351852118e+00 7.708523823302468436e+00 7.705113811728395490e+00 7.689070216049382900e+00 7.698325617283951594e+00 7.681945891203703525e+00 7.675025077160492870e+00 7.659425636574074048e+00 7.661431327160493687e+00 7.670198206018517872e+00 7.661954089506173737e+00 7.682234278549382900e+00 7.665422453703703454e+00 7.530540123456789914e+00 7.525728684413580005e+00 7.547211612654320945e+00 7.569449749228394531e+00 7.590776909722221966e+00 7.604224537037037379e+00 7.612271894290122631e+00 7.603692129629629370e+00 7.615664544753085963e+00 7.602520254629628660e+00 7.595170235339505638e+00 7.618935185185185865e+00 7.624613715277778425e+00 7.617747395833332824e+00 7.594823977623455846e+00 7.609101080246913007e+00 7.609598283179012768e+00 7.573612557870370132e+00 7.593747106481481879e+00 7.581527777777777644e+00 7.596272665895062559e+00 7.581534529320988369e+00 7.583952546296296227e+00 7.582502411265432229e+00 7.574429494598764911e+00 7.564686053240740726e+00 7.542735821759259274e+00 7.551052276234567984e+00 7.557286844135802539e+00 7.550900366512345308e+00 7.563695987654321051e+00 7.387016300154320980e+00 7.390375675154320589e+00 7.426651716820988014e+00 7.478148630401235231e+00 7.507027874228395348e+00 7.515474537037036384e+00 7.519990837191357969e+00 7.524904513888889035e+00 7.542903163580247039e+00 7.519179687500000320e+00 7.529792148919753458e+00 7.530380979938271935e+00 7.523030960648148913e+00 7.503343460648148167e+00 7.504935860339506881e+00 7.501943962191357507e+00 7.517762827932098268e+00 7.495484182098764769e+00 7.491688368055555713e+00 7.489758873456790589e+00 7.506727430555555358e+00 7.504490258487654053e+00 7.516652681327160579e+00 7.505096450617283921e+00 7.503317418981481524e+00 7.492335069444444606e+00 7.483997395833333677e+00 7.470072820216049791e+00 7.468723958333333357e+00 7.453536844135802752e+00 7.292418499228395135e+00 7.276209008487653840e+00 7.334507619598765515e+00 7.345197723765432229e+00 7.356607349537036988e+00 7.367663966049383006e+00 7.377661072530864672e+00 7.403817033179011631e+00 7.364583815586419391e+00 7.367442129629629299e+00 7.370817901234568481e+00 7.359318576388888644e+00 7.349979745370370132e+00 7.358271604938271260e+00 7.365718074845679197e+00 7.371581307870370914e+00 7.376211902006172494e+00 7.359060570987653982e+00 7.354043209876543585e+00 7.359896315586419213e+00 7.354923804012345023e+00 7.329660976080247359e+00 7.321281346450617455e+00 7.304993248456790766e+00 7.310790412808641392e+00 7.305794270833333215e+00 7.326503665123457409e+00 7.299176311728395206e+00 7.279297839506172707e+00 7.270087770061728349e+00 7.290538676697530640e+00 7.157161458333333393e+00 7.165090181327160579e+00 7.210416184413580787e+00 7.222737750771605292e+00 7.243690682870370878e+00 7.215598476080247181e+00 7.236059510030864672e+00 7.213826678240740975e+00 7.222214023919753423e+00 7.219016685956789914e+00 7.197105034722222960e+00 7.203860918209875841e+00 7.196305459104938684e+00 7.195330825617284098e+00 7.189489776234568197e+00 7.189954668209876942e+00 7.184588638117284098e+00 7.163087384259259061e+00 7.167756558641975140e+00 7.154855324074073764e+00 7.146584201388889390e+00 7.166887538580247075e+00 7.144080825617283637e+00 7.128856095679012128e+00 7.111175733024691858e+00 7.105620659722221788e+00 7.098655960648147634e+00 7.104912229938271651e+00 7.108359375000000036e+00 7.111605902777777821e+00 7.083347318672839954e+00 6.991888020833333606e+00 7.015453317901235053e+00 7.061353202160494114e+00 7.071428433641975708e+00 7.056578896604938755e+00 7.044030189043209766e+00 7.060581114969135541e+00 7.070929783950617775e+00 7.072012442129629761e+00 7.065194830246913860e+00 7.083238811728395312e+00 7.061934799382716399e+00 7.035008198302469040e+00 7.053076774691358075e+00 7.030143711419753139e+00 7.027048611111110787e+00 7.031347415123456734e+00 7.035425829475308923e+00 7.047944155092593199e+00 7.065486593364197709e+00 7.057282503858024469e+00 7.061665702160493829e+00 7.051588541666666821e+00 7.041618923611110858e+00 7.045042438271604368e+00 7.034322434413580183e+00 7.029538001543210513e+00 7.017219810956790482e+00 7.018722029320987765e+00 7.014033564814814881e+00 6.891147762345679162e+00 6.910462962962963474e+00 6.937626350308642387e+00 6.956973861882715937e+00 6.936849440586419391e+00 6.934163290895061671e+00 6.951000675154321407e+00 6.929075520833333890e+00 6.933738425925925597e+00 6.967350983796295694e+00 7.016444830246913789e+00 7.031498842592593057e+00 7.031421682098764947e+00 7.025435956790123448e+00 7.019341724537037308e+00 7.000161554783950635e+00 6.994665316358024576e+00 6.978087384259259451e+00 6.968511284722222143e+00 6.992262249228395454e+00 6.969534625771604652e+00 6.963836805555556175e+00 6.932102623456790624e+00 6.932110339506173169e+00 6.941749131944444429e+00 6.932020640432098979e+00 6.934986014660493581e+00 6.941393229166666679e+00 6.959327256944444429e+00 6.940220871913579614e+00 6.946150655864197887e+00 6.779108796296296369e+00 6.785336612654321087e+00 6.816826292438271651e+00 6.824631558641975460e+00 6.858465952932099263e+00 6.852019675925925313e+00 6.861366222993827257e+00 6.869192226080246932e+00 6.887826967592592275e+00 6.879495563271604830e+00 6.889061535493827826e+00 6.915771604938272255e+00 6.903104745370369777e+00 6.890816936728395348e+00 6.872373649691358111e+00 6.874643132716049543e+00 6.869953221450617598e+00 6.856233603395061493e+00 6.846110146604938329e+00 6.838422550154320767e+00 6.839331114969135150e+00 6.827531346450617100e+00 6.834204282407407405e+00 6.836932388117284098e+00 6.823179012345679695e+00 6.824279996141975779e+00 6.803034818672839101e+00 6.809647955246913575e+00 6.807359664351851691e+00 6.790423900462962514e+00 6.759436728395061600e+00 6.721086033950617100e+00 6.688862847222222463e+00 6.728989679783950351e+00 6.755820794753086389e+00 6.731207079475308497e+00 6.738756269290123058e+00 6.715221836419753565e+00 6.688232060185185013e+00 6.696445794753086211e+00 6.710330825617283779e+00 6.708763020833333535e+00 6.663247974537036988e+00 6.669847125771604546e+00 6.652362557870370452e+00 6.624969618055556175e+00 6.629334972993827790e+00 6.621725501543210157e+00 6.615340470679011986e+00 6.611520061728395348e+00 6.589712577160494078e+00 6.575153356481481026e+00 6.598128858024691290e+00 6.585635609567901838e+00 6.589294463734567842e+00 6.581709587191357791e+00 6.573110050154320483e+00 6.564209587191358608e+00 6.561989776234567806e+00 6.548712384259259167e+00 6.549864004629629477e+00 6.577653356481481417e+00 6.594507137345678949e+00 6.605908564814814810e+00 6.600807773919752819e+00 6.600631269290123448e+00 6.576367187499999822e+00 6.566494984567901483e+00 6.568392650462962834e+00 6.586836902006172778e+00 6.560733989197530924e+00 6.537453703703703489e+00 6.558654513888889426e+00 6.555096932870370097e+00 6.569577064043210513e+00 6.569626253858024789e+00 6.556579861111110574e+00 6.574356674382715759e+00 6.566818576388889106e+00 6.559103973765432194e+00 6.550836709104937761e+00 6.527907986111110894e+00 6.554209587191357933e+00 6.524127121913580574e+00 6.553560474537036384e+00 6.573158275462962941e+00 6.568248456790123591e+00 6.562515914351851443e+00 6.541174768518518867e+00 6.536793981481481275e+00 6.544445891203703347e+00 6.529154610339506171e+00 6.471560570987654692e+00 6.490894097222222214e+00 6.488783275462963296e+00 6.491316068672839279e+00 6.497915702160494078e+00 6.498204089506172565e+00 6.484152681327160828e+00 6.480225212191358608e+00 6.483492959104937725e+00 6.482381847993827328e+00 6.476931905864197425e+00 6.479748746141975602e+00 6.484553433641974785e+00 6.489667727623456450e+00 6.506616512345678949e+00 6.492981288580246257e+00 6.502806712962962976e+00 6.495027006172839457e+00 6.471521026234567486e+00 6.487287808641974962e+00 6.492583429783950422e+00 6.495287905092592240e+00 6.489624324845678416e+00 6.493921199845678949e+00 6.491177179783950812e+00 6.504075520833333179e+00 6.491682581018518583e+00 6.474066358024691326e+00 6.471046489197530782e+00 6.474226466049382900e+00 6.461263020833333037e+00 6.370761959876542591e+00 6.367395351080246790e+00 6.413622685185185190e+00 6.418204089506172494e+00 6.398417245370369599e+00 6.415122010030864352e+00 6.402011959876542591e+00 6.401085069444444109e+00 6.392580536265432656e+00 6.381308352623456415e+00 6.380384355709876942e+00 6.375712287808641854e+00 6.371122685185184764e+00 6.342208236882716399e+00 6.351529706790123520e+00 6.350512635030864494e+00 6.328610628858024612e+00 6.332757523148147882e+00 6.324414062499999822e+00 6.320459104938271899e+00 6.320186631944443967e+00 6.299130979938271757e+00 6.332714602623457090e+00 6.319128086419753210e+00 6.313246045524691041e+00 6.283090760030864530e+00 6.285032793209876623e+00 6.283341531635802113e+00 6.273515142746913575e+00 6.248970389660493119e+00 6.242373649691357329e+00 6.249999035493827293e+00 6.240008680555555465e+00 6.247608024691357897e+00 6.239253472222222818e+00 6.236522955246913469e+00 6.230200617283951026e+00 6.222617669753086389e+00 6.222451774691357684e+00 6.235641396604938436e+00 6.239969135802469147e+00 6.230440779320987055e+00 6.254618055555555500e+00 6.235074749228394886e+00 6.218811246141975779e+00 6.248006847993827328e+00 6.215174575617283814e+00 6.221842206790123342e+00 6.201219135802468863e+00 6.206020929783950812e+00 6.207513985339505602e+00 6.204477719907407263e+00 6.204226948302469680e+00 6.202330246913580147e+00 6.204192226080246897e+00 6.200016396604938862e+00 6.221580825617284205e+00
