2.002733212770061755e+02 2.002636168981481433e+02 2.001843557098765416e+02 2.000298162615740694e+02 2.002805550733024802e+02 2.007061487268518647e+02 2.010524199459876797e+02 2.013822202932098833e+02 2.016828337191358003e+02 2.019437451774691397e+02 2.021909915123456756e+02 2.024501982060185128e+02 2.026713305362654296e+02 2.028976369598765359e+02 2.031617500964506178e+02 2.043627488425925947e+02 2.047114891975308524e+02 2.049047612847222126e+02 2.050272984182098810e+02 2.048949681712962843e+02 2.035577883873456813e+02 2.011363840663580334e+02 1.991687355324073962e+02 1.989349590084876525e+02 1.991963671875000159e+02 1.993513025655864226e+02 1.995269815779321050e+02 1.997664240933641793e+02 2.001991015625000045e+02 2.004446161265432238e+02 2.004533270640432079e+02 2.003387842399691579e+02 2.003405068479938222e+02 2.004183367091049490e+02 2.006384090470679098e+02 2.009773543595678973e+02 2.013304402970678950e+02 2.016894439621913762e+02 2.020373606288580390e+02 2.023707995756172693e+02 2.026636569251543278e+02 2.029210947145061823e+02 2.031242645640431874e+02 2.033616975308642054e+02 2.035965219907407402e+02 2.038653833912037214e+02 2.041885624035493834e+02 2.044832195216049229e+02 2.043367906057098651e+02 2.029030709876543312e+02 2.010026991705246928e+02 2.004509138695987644e+02 2.002735976080246871e+02 2.002946508487654569e+02 2.004777068865740546e+02 2.008589173418209839e+02 2.012327044753086511e+02 2.014053940007716221e+02 2.013506274112654353e+02 2.012407937885802482e+02 2.012353973765432045e+02 2.013788551311728554e+02 2.021704682677469123e+02 2.022675815007715983e+02 2.024640075231481262e+02 2.026857272376543335e+02 2.029400226658950714e+02 2.032089293981481433e+02 2.034533805941357798e+02 2.036812278163580174e+02 2.038891280864197597e+02 2.041064351851852052e+02 2.043423369984568012e+02 2.046467476851851757e+02 2.049168373842592814e+02 2.046750708912037169e+02 2.027044666280864078e+02 2.006650969328703695e+02 2.001600655864197336e+02 1.999507552083333337e+02 1.999074426118827148e+02 1.999300130208333428e+02 2.000221908757716278e+02 2.002365451388888857e+02 2.004187331211419973e+02 2.004753139467592575e+02 2.004204296874999898e+02 2.004226118827160406e+02 2.005583502121913568e+02 2.007862635030864169e+02 2.010914988425925856e+02 2.014273104745370233e+02 2.017850921103394910e+02 2.028660773533950703e+02 2.029303390239197427e+02 2.030431679205246951e+02 2.031766849922839526e+02 2.033541676311728281e+02 2.035292177854938132e+02 2.037369902584876797e+02 2.039612446952160383e+02 2.042380835262345897e+02 2.045295452353394978e+02 2.046303795331790241e+02 2.036343132716049240e+02 2.010085773533950828e+02 1.999480010609568126e+02 1.995716097608024597e+02 1.994122858796296214e+02 1.993687051504629721e+02 1.993686405285493777e+02 1.994729783950617445e+02 1.996836371527777771e+02 1.998300544945987838e+02 1.998502555941358025e+02 1.998527184606481626e+02 1.999204282407407334e+02 2.000984182098765416e+02 2.003887596450617252e+02 2.007324768518518567e+02 2.010830029899691169e+02 2.014459162808641963e+02 2.017972337962962968e+02 2.021003641010802312e+02 2.029175752314814929e+02 2.030114236111110984e+02 2.031339192708333314e+02 2.032713898533950498e+02 2.034603486689814815e+02 2.036960088734567762e+02 2.039537697723765461e+02 2.042849387538580288e+02 2.046123389274691533e+02 2.045866565393518499e+02 2.031396860532407231e+02 2.007795756172839674e+02 1.999044391396604965e+02 1.996348750964505996e+02 1.995766575038580299e+02 1.995894473379629517e+02 1.996484336419752879e+02 1.998321484374999955e+02 2.000597800925926038e+02 2.001568561921296237e+02 2.001445457175925924e+02 2.001124194637345681e+02 2.001736583719136036e+02 2.003404885223765461e+02 2.006118812692901088e+02 2.009610146604938450e+02 2.013084683641975516e+02 2.016308511766975471e+02 2.019218123070987474e+02 2.021751466049382771e+02 2.024165364583333258e+02 2.030864091435185230e+02 2.032080960648148107e+02 2.033375781249999932e+02 2.035328192515432022e+02 2.037738199266975414e+02 2.040287548225308569e+02 2.040143369020061641e+02 2.028973519483024575e+02 2.005950520833333428e+02 1.999165210262345624e+02 1.996520524691358105e+02 1.996075858410493993e+02 1.997078120177469032e+02 1.999783535879629710e+02 2.003890268132716130e+02 2.005739327739197506e+02 2.005478192515432170e+02 2.004447386188271594e+02 2.004106910686728327e+02 2.004859847608024950e+02 2.006805107060185378e+02 2.009709784915123407e+02 2.013162909915123464e+02 2.017185445601851939e+02 2.021137427662036998e+02 2.024242462384259227e+02 2.026563358410493834e+02 2.028733140432098878e+02 2.030883810763888846e+02 2.033408540702160678e+02 2.036029460841049286e+02 2.043534616126543426e+02 2.043283497299382816e+02 2.031442790316357900e+02 2.004648929398148312e+02 1.994982065007716017e+02 1.991266951195987644e+02 1.989919589120370347e+02 1.989832933063271412e+02 1.990527174961419803e+02 1.992531399498456892e+02 1.994925583526234618e+02 1.995926176697530821e+02 1.995604846643518329e+02 1.995400149498456983e+02 1.996144622878086352e+02 1.998123389274691419e+02 2.004226176697530946e+02 2.008142785493827205e+02 2.011911974344135672e+02 2.015382494212963138e+02 2.018347439236111143e+02 2.021015345293209862e+02 2.023256809413580299e+02 2.025425163966049240e+02 2.027525318287036953e+02 2.029781973379629676e+02 2.032818513695987690e+02 2.036752117091049286e+02 2.039732947530864067e+02 2.037503607253086386e+02 2.012775824652777885e+02 1.995091777584876525e+02 1.988500728202160417e+02 1.985754243827160508e+02 1.984823533950617502e+02 1.984212586805555532e+02 1.984616603973765336e+02 1.986758743248456938e+02 1.989164139660493902e+02 1.990381712962962979e+02 1.990680367476851700e+02 1.991202826003086557e+02 1.992667148919753117e+02 1.995198857060185276e+02 1.998976128472222342e+02 2.003092761381172693e+02 2.007337292631172829e+02 2.011124715470679121e+02 2.014297410300925719e+02 2.017014916087962888e+02 2.019580603780864010e+02 2.021961786265432295e+02 2.024334968171296509e+02 2.026851374421296157e+02 2.029670264274691363e+02 2.032544511959876559e+02 2.035668508873456801e+02 2.039145433063271469e+02 2.042609235146605045e+02 2.045625279706790138e+02 2.044052946566358173e+02 2.020791184413580197e+02 2.000848924575617502e+02 1.992451249035493674e+02 1.989678448109567910e+02 1.988906640624999795e+02 1.988725496720678905e+02 1.989032257908950498e+02 1.990948451967592518e+02 1.993493484760802517e+02 1.994615369405864271e+02 1.994603978587962843e+02 1.994771098572530832e+02 1.995926046489197745e+02 1.998140571952160371e+02 2.001502440200617343e+02 2.005521088927469293e+02 2.009584346064814895e+02 2.013282465277777931e+02 2.016415620177469350e+02 2.018995076195987792e+02 2.021337032214506166e+02 2.023821223958333348e+02 2.026356978202160519e+02 2.028980844907407288e+02 2.031837254050925878e+02 2.034737880979938041e+02 2.037818537808641963e+02 2.040960657793209805e+02 2.044079480131172772e+02 2.046352879050925822e+02 2.041894569830247121e+02 2.016119593942901247e+02 2.004699344135802619e+02 1.997968971836419598e+02 1.995575853587963024e+02 1.995360831404320834e+02 1.996277801890431931e+02 1.999014438657407595e+02 2.002369468557099026e+02 2.003420331790123612e+02 2.002664646026234436e+02 2.001575106095679075e+02 2.001669748263888948e+02 2.003086959876543176e+02 2.005642279128086329e+02 2.009062080439814792e+02 2.016887880979938359e+02 2.020284326774691408e+02 2.023345852623456835e+02 2.025883651620370358e+02 2.028028612075617332e+02 2.030151331018518590e+02 2.032315499614197449e+02 2.034732716049382759e+02 2.037473586998456767e+02 2.040468590856481512e+02 2.043497342785493629e+02 2.042735291280864374e+02 2.025414211998456722e+02 2.000644024884259125e+02 1.992388831018518545e+02 1.985838956404321038e+02 1.987287861689814576e+02 1.989055242091049536e+02 1.991474262152777612e+02 1.995321031057098651e+02 1.998006370563271616e+02 1.998362562692901179e+02 1.997661308834876479e+02 1.997260378086419621e+02 1.998123128858024700e+02 2.000207228973765439e+02 2.003361979166666629e+02 2.007410262345678973e+02 2.011662919560185117e+02 2.015260816936728645e+02 2.018645182291666629e+02 2.021389689429012435e+02 2.023924585262345488e+02 2.026318007330246758e+02 2.028806250000000091e+02 2.031355507330247008e+02 2.033869960455246826e+02 2.036576639660493697e+02 2.039557364004629676e+02 2.043115644290123498e+02 2.045764014274691363e+02 2.041034833140432170e+02 2.014162220293210055e+02 1.992142949459876604e+02 1.986532663001543426e+02 1.984368696952160462e+02 1.982976789158950623e+02 1.983207113233024756e+02 1.983673789544752992e+02 1.985568074845679121e+02 1.987625414737654523e+02 1.988352854938271719e+02 1.988331356095679041e+02 1.988776152584876797e+02 1.990310961612654523e+02 1.992917042824074088e+02 1.996636149691358071e+02 2.001012379436728281e+02 2.005762736304012321e+02 2.009825197723765484e+02 2.012919507137345647e+02 2.015854393325617195e+02 2.018231886574074281e+02 2.021000805362654376e+02 2.023836858603395115e+02 2.026856413966049502e+02 2.029674807098765541e+02 2.032724315200617298e+02 2.035791367669753242e+02 2.039590335648148312e+02 2.043102985146605022e+02 2.045594941165123259e+02 2.038875945216049388e+02 2.011511250964506416e+02 1.991872352430555395e+02 1.987031163194444616e+02 1.985392621527777806e+02 1.984475839120370324e+02 1.985077449845679212e+02 1.986113647762345522e+02 1.988178520447530957e+02 1.990100540123456767e+02 1.990621899112654205e+02 1.990451036844135899e+02 1.990770857445987474e+02 1.991975665509259272e+02 1.994397419945987622e+02 1.997901890432098924e+02 2.001890702160493731e+02 2.005939646026234584e+02 2.009736096643518692e+02 2.015966714891975471e+02 2.018325655864197472e+02 2.020537167245370540e+02 2.023055753279321038e+02 2.025402184606481626e+02 2.027880000964506166e+02 2.030721209490740762e+02 2.034183473186728293e+02 2.037587196180555509e+02 2.037888787615740966e+02 2.024666309799382589e+02 1.999083685378086557e+02 1.988308907214506007e+02 1.985114544753086250e+02 1.984463966049382861e+02 1.985442365933641895e+02 1.991104142554012526e+02 1.993346026234567887e+02 1.994752324459876434e+02 1.994220683834876695e+02 1.992760021219135922e+02 1.992029933449074122e+02 1.992601769868827262e+02 1.994493923611111086e+02 1.997253279320987644e+02 2.000703178047839685e+02 2.004137432484567967e+02 2.007900597993827319e+02 2.011403308256172693e+02 2.014402898341049593e+02 2.016751765046296327e+02 2.018915108989197336e+02 2.021093291859567955e+02 2.023389641203703491e+02 2.026209259259259454e+02 2.029347212577160633e+02 2.031072106481481399e+02 2.023817491319444457e+02 1.996630767746913762e+02 1.981639014274691419e+02 1.977520751350308785e+02 1.976375795717592609e+02 1.976843451003086329e+02 1.978630454282407243e+02 1.981802666859567807e+02 1.984873919753086398e+02 1.986298490547839322e+02 1.987879470486111302e+02 1.987856278935185230e+02 1.988316536458333417e+02 1.989856476658950726e+02 1.992549512924382498e+02 1.996135527584876570e+02 2.000105584490740966e+02 2.003902314814814929e+02 2.007601282793209805e+02 2.010726740933641850e+02 2.013419748263889062e+02 2.016036434220679041e+02 2.018645645254629528e+02 2.021088425925925947e+02 2.023707238618827091e+02 2.026700091628086398e+02 2.029971903935185367e+02 2.033392418981481455e+02 2.034027854938271673e+02 2.020440673225308785e+02 1.991744950810185060e+02 1.979238507908950453e+02 1.975753361304012117e+02 1.974602570408950726e+02 1.974000231481481364e+02 1.973755719521604988e+02 1.974938295717592496e+02 1.977509225501543426e+02 1.979346576003086398e+02 1.979822395833333246e+02 1.979877266589506064e+02 1.983290234374999841e+02 1.984921161265432090e+02 1.987261328124999977e+02 1.990547386188271446e+02 1.994330584490740819e+02 1.998073398919753174e+02 2.002009934413580083e+02 2.005444671103394967e+02 2.008355420524691226e+02 2.011154764660493584e+02 2.013819227430555543e+02 2.016571513310185253e+02 2.019291087962963047e+02 2.025108227237654148e+02 2.028616603973765393e+02 2.032229586226851836e+02 2.034881534529320959e+02 2.029237495177468986e+02 2.001702502893518272e+02 1.982202068865740614e+02 1.976413580246913568e+02 1.974087364969135763e+02 1.973510841049382805e+02 1.973345756172839458e+02 1.974361728395061846e+02 1.976756264467592814e+02 1.978713493441357798e+02 1.979186448688271582e+02 1.979086911651234573e+02 1.979309649884259272e+02 1.984025704089505950e+02 1.985890880594135979e+02 1.988450207368827307e+02 1.991538387345678984e+02 1.995039342206790138e+02 1.998602830825617502e+02 2.001758463541666799e+02 2.004516464120370358e+02 2.006773196373456756e+02 2.009361892361111188e+02 2.011778621720679041e+02 2.014259186921296418e+02 2.016766546103395115e+02 2.019553737461419871e+02 2.022811887538580322e+02 2.026213961226851836e+02 2.027652782600308683e+02 2.019341435185185105e+02 1.992859413580247008e+02 1.979614988425925901e+02 1.976249209104938132e+02 1.975230801504629596e+02 1.975653785686728554e+02 1.977428993055555395e+02 1.981197255979938348e+02 1.984362466242284029e+02 1.985149291087963093e+02 1.984377700617283722e+02 1.983769323881172681e+02 1.984420809220679018e+02 1.986206216242283915e+02 1.994302493248456756e+02 1.996070216049382680e+02 1.998416005979938177e+02 2.001041068672839458e+02 2.003778530092592405e+02 2.006208777006172852e+02 2.008665051118827307e+02 2.010966039737654398e+02 2.013325163966049445e+02 2.015672188464506007e+02 2.018456992669752879e+02 2.021461824845679018e+02 2.024807609953703604e+02 2.027790851658950828e+02 2.025137495177469305e+02 2.002787287808641850e+02 1.980354798418210009e+02 1.974201996527777681e+02 1.971731124614197483e+02 1.971118258101851950e+02 1.971437133487654307e+02 1.973135165895061789e+02 1.976200607638888869e+02 1.978246677276234493e+02 1.978582253086419769e+02 1.978078308256172875e+02 1.978254827353395058e+02 1.979616261574074088e+02 1.982055174575617400e+02 1.985623124035493845e+02 1.989604128086419621e+02 2.000207605131172954e+02 2.001706409143518499e+02 2.003362953317900974e+02 2.005124170524691465e+02 2.007175178433642202e+02 2.009397313850308535e+02 2.011944102044753038e+02 2.014606712962962831e+02 2.017055246913580220e+02 2.020051007908950567e+02 2.023088425925925833e+02 2.026579972029321084e+02 2.030026678240740807e+02 2.011296971450617264e+02 1.983044020061728645e+02 1.971800125385802573e+02 1.968517737268518601e+02 1.967152343749999943e+02 1.966430492862654376e+02 1.966224739583333303e+02 1.967489877507715903e+02 1.970044405864197472e+02 1.971662138310184957e+02 1.972267693865740910e+02 1.972566116898148039e+02 1.973521672453703673e+02 1.975490682870370449e+02 1.978591758294753049e+02 1.982518778935185253e+02 1.986785373263888914e+02 1.997321696566357900e+02 1.998830705054012356e+02 2.000582040895061766e+02 2.002661236496913659e+02 2.005059669174382861e+02 2.007508849344135626e+02 2.010371045524691169e+02 2.013357195216049433e+02 2.016664568865740819e+02 2.019906915509259306e+02 2.023228544560185185e+02 2.026598852237654569e+02 2.030173046875000011e+02 2.032846040702160622e+02 2.027519135802469350e+02 2.000818658371913443e+02 1.980997950424382736e+02 1.974478626543209998e+02 1.972030888310185048e+02 1.971410513117284040e+02 1.971146899112654296e+02 1.971739293981481467e+02 1.973605251736111086e+02 1.975427464313271457e+02 1.976003674768518579e+02 1.975989940200617241e+02 1.976369309413580027e+02 1.977707031250000114e+02 1.980121739969135888e+02 1.983347583912037067e+02 1.987104132908950760e+02 1.997762157600308512e+02 1.999168542631172727e+02 2.000751239390432090e+02 2.002485223765432067e+02 2.004601157407407186e+02 2.006816049382715903e+02 2.009037562692901133e+02 2.011611164158950658e+02 2.014333651620370347e+02 2.017439231288580288e+02 2.020655656828703854e+02 2.024204480131172943e+02 2.026416763117283892e+02 2.020482494212963047e+02 1.995036101466049274e+02 1.978513710455247008e+02 1.974313295717592496e+02 1.972822453703703900e+02 1.973328071952160485e+02 1.975111005015432113e+02 1.978513315007716074e+02 1.981845900848765609e+02 1.982807200038580220e+02 1.981898702739197518e+02 1.980955541087962786e+02 1.981258130787036862e+02 1.982804412615740546e+02 1.985336337770061732e+02 1.988818417245370540e+02 1.992804470486111086e+02 1.996537364969135808e+02 2.005675959683641736e+02 2.006956626157407300e+02 2.008237837577160576e+02 2.009813917824074281e+02 2.011548490547839378e+02 2.013391112075617286e+02 2.015639327739197597e+02 2.018236284722222251e+02 2.021348437500000159e+02 2.024791169945987690e+02 2.025552488425925901e+02 2.013580608603394921e+02 1.972141782407407504e+02 1.968301104359567830e+02 1.966892356288580288e+02 1.966577903163580174e+02 1.967321281828703547e+02 1.969353766396604897e+02 1.972243243634259500e+02 1.973524503279321038e+02 1.973629272762345579e+02 1.973377946566358219e+02 1.974020423418209873e+02 1.975829538001543426e+02 1.978880709876543165e+02 1.982754055748456778e+02 1.986824710648148198e+02 1.991034225501543062e+02 1.994364838927469350e+02 1.997308439429012310e+02 2.005025462962962877e+02 2.005987456597222263e+02 2.007098543595678848e+02 2.008792631172839549e+02 2.010815716628086420e+02 2.013172333140431931e+02 2.016021503665123475e+02 2.019286839313271571e+02 2.023143711419753288e+02 2.024839858217592621e+02 2.015875752314814804e+02 1.987295466820987713e+02 1.969104701967592348e+02 1.964724893904320879e+02 1.963141261574074008e+02 1.962490055941358094e+02 1.961887085262345636e+02 1.962501470871913511e+02 1.964629899691358048e+02 1.966836328124999795e+02 1.967924845679012265e+02 1.967968629436728349e+02 1.968574440586419598e+02 1.970164154128086409e+02 1.972800380979938097e+02 1.976491468942901122e+02 1.980625260416666720e+02 1.984853833912036976e+02 1.989318426890432079e+02 1.992788054591049445e+02 1.995883241705246860e+02 2.004124971064814815e+02 2.005269762731481364e+02 2.006616208526234573e+02 2.008623442322530650e+02 2.010903804976851745e+02 2.013436631944444457e+02 2.016370302854938359e+02 2.019591608796296214e+02 2.022542062114197279e+02 2.021071407214506053e+02 2.001168103780864271e+02 1.976606254822530957e+02 1.968640687692901281e+02 1.965491382137345795e+02 1.964553925540123203e+02 1.964503872492284131e+02 1.965594897762345852e+02 1.967916116898148005e+02 1.970171932870370313e+02 1.970841917438271764e+02 1.970364033564814576e+02 1.970183101851851859e+02 1.971126152584876650e+02 1.973156447723765439e+02 1.976134379822530889e+02 1.979903390239197449e+02 1.983776123649691385e+02 1.987183858989197631e+02 1.990360329861111097e+02 1.993309592013889073e+02 1.996014935378086363e+02 2.003123784722222069e+02 2.004152194251543335e+02 2.005111848958333383e+02 2.006635932677469043e+02 2.008821108217592553e+02 2.011566001157407300e+02 2.014873924575617252e+02 2.015987287808641781e+02 2.007526287615740728e+02 1.981093084490740921e+02 1.964553906250000068e+02 1.963218315972222285e+02 1.963846682098765655e+02 1.965981852816358071e+02 1.970127363040123498e+02 1.973517418981481626e+02 1.974396006944444366e+02 1.973686805555555566e+02 1.973021542245370483e+02 1.973528086419753151e+02 1.975292525077160519e+02 1.977926673418209873e+02 1.981380955825617320e+02 1.985258907214506223e+02 1.989127498070987770e+02 1.992782518325617502e+02 1.995879735725308421e+02 1.998653057484567910e+02 2.001263893711419826e+02 2.003668803047839617e+02 2.010521031057098753e+02 2.011647646604938302e+02 2.013223461612654148e+02 2.015778877314814679e+02 2.018376277970679098e+02 2.017007479745370233e+02 1.997206438078703741e+02 1.973110460069444514e+02 1.962744251543209941e+02 1.959584336419753186e+02 1.958577893518518636e+02 1.958695683834876604e+02 1.959563749035493743e+02 1.961840055941358116e+02 1.964375636574074235e+02 1.965634042245370381e+02 1.965359374999999886e+02 1.965016444830246769e+02 1.965696682098765393e+02 1.967626591435185048e+02 1.970430092592592644e+02 1.974218378665123623e+02 1.978348731674382748e+02 1.982290605709876559e+02 1.986133347800925719e+02 1.989344487847222069e+02 1.992043561921296373e+02 1.994401552854938302e+02 1.996937914737654296e+02 1.999493663194444366e+02 2.002240726273148255e+02 2.010692105516975516e+02 2.012361501736110938e+02 2.014342901234567762e+02 2.016369087577160428e+02 2.012339549575617355e+02 1.987101668595678916e+02 1.965518340084876741e+02 1.959566541280864271e+02 1.957468378665123510e+02 1.956982065007715903e+02 1.956602285879629619e+02 1.957001437114197699e+02 1.958659543788580493e+02 1.960729301697530786e+02 1.961768856095679041e+02 1.961831886574074133e+02 1.962233121141975403e+02 1.963647304205246940e+02 1.966146638695987576e+02 1.969598046874999966e+02 1.973579750192901088e+02 1.978110199652777794e+02 1.982208815586419917e+02 1.986181081211419723e+02 1.989551832561728588e+02 1.992412075617284017e+02 1.995178110532407345e+02 1.997973625578703718e+02 2.000986332947530855e+02 2.004014578510802664e+02 2.007267915702160508e+02 2.015913112461419701e+02 2.017566550925925810e+02 2.019181274112654307e+02 2.017332908950617139e+02 1.997476427469135842e+02 1.973492722800925776e+02 1.966359389467592678e+02 1.963347294560185219e+02 1.962843451003086557e+02 1.963079615162037044e+02 1.966885706018518647e+02 1.969415244020061664e+02 1.970201601080246974e+02 1.969944174382715971e+02 1.969734485918210112e+02 1.970612644675925935e+02 1.972520163001543381e+02 1.975376760223765302e+02 1.978864602623456790e+02 1.982511738040123248e+02 1.985892592592592507e+02 1.989195423418209998e+02 1.992148572530864215e+02 1.994541145833333360e+02 1.996977343750000102e+02 1.999312934027777828e+02 2.001679229359567955e+02 2.004329711612654421e+02 2.007381433256172727e+02 2.010504793595679018e+02 2.017691372492284074e+02 2.013064742476851734e+02 1.988436226851851814e+02 1.971554846643518601e+02 1.966369102044752992e+02 1.964481722608024654e+02 1.964190890239197529e+02 1.965801533564814747e+02 1.969228515625000000e+02 1.973152570408950623e+02 1.974743981481481399e+02 1.974466059027777760e+02 1.973671455439814792e+02 1.973799590084876741e+02 1.975067582947530695e+02 1.977360517939814883e+02 1.980534346064814883e+02 1.984251943479938234e+02 1.988006659915123464e+02 1.991511299189814679e+02 1.994685011574074167e+02 1.997396643518518431e+02 1.999803703703703661e+02 2.002217038001543017e+02 2.004490528549382589e+02 2.007147714120370381e+02 2.010231066743827171e+02 2.015346272183641929e+02
5.281646894290123839e+01 5.282411168981481353e+01 5.292030333719135626e+01 5.336712287808641975e+01 5.392840518904321101e+01 5.445810570987654131e+01 5.485570312500000512e+01 5.518877652391975630e+01 5.549050588348764990e+01 5.574575810185184821e+01 5.598549286265431846e+01 5.622162133487654501e+01 5.643159529320987389e+01 5.665831886574073906e+01 5.693961950231481239e+01 5.914216242283950464e+01 6.030572000385802767e+01 6.070610580632715880e+01 6.056010223765431988e+01 5.986945071373456528e+01 5.727829234182099327e+01 5.366917245370370892e+01 5.118037037037037607e+01 5.157803433641975488e+01 5.248098283179012213e+01 5.298711660879629903e+01 5.343719232253086204e+01 5.395678915895061323e+01 5.468478250385802397e+01 5.514106288580246940e+01 5.529612123842592553e+01 5.463496190200617519e+01 5.465721305941358565e+01 5.480794029706790127e+01 5.516824411651234072e+01 5.562771556712963417e+01 5.607857204861110745e+01 5.651762056327159911e+01 5.692880111882715966e+01 5.730220341435185105e+01 5.762485580632716164e+01 5.791509403935184963e+01 5.814892795138888459e+01 5.839972173996913796e+01 5.864028260030864459e+01 5.893421151620370324e+01 5.930854166666666316e+01 5.968482928240740648e+01 5.959112702546296703e+01 5.807851900077160678e+01 5.576649980709876786e+01 5.506893084490740620e+01 5.486446807484567501e+01 5.489769531250000512e+01 5.510852623456790411e+01 5.552486207561728548e+01 5.597312017746914137e+01 5.618633825231481893e+01 5.611810136959876161e+01 5.600133053626543500e+01 5.598897328317901412e+01 5.614370273919752918e+01 5.697202256944444798e+01 5.708087721836420059e+01 5.733338348765432357e+01 5.762808738425925981e+01 5.796617717978394779e+01 5.829194878472222285e+01 5.859170862268518221e+01 5.885964940200617690e+01 5.909782552083333940e+01 5.935434606481481268e+01 5.963038387345678615e+01 5.997805459104938564e+01 6.031162374614196864e+01 6.006851610725308888e+01 5.783046199845679070e+01 5.528737461419753174e+01 5.462063175154321470e+01 5.441494695216049138e+01 5.440689284336419718e+01 5.446201678240741018e+01 5.458718315972222257e+01 5.480749276620370125e+01 5.501130449459876814e+01 5.506794077932099185e+01 5.501469087577159911e+01 5.502537229938271679e+01 5.516417438271604823e+01 5.542131365740740989e+01 5.576481770833333940e+01 5.615370466820987616e+01 5.655533275462963161e+01 5.769882860725308404e+01 5.778229986496913995e+01 5.789285300925926236e+01 5.804000337577160451e+01 5.825443817515431988e+01 5.847495997299382964e+01 5.870667293595678871e+01 5.897626012731481637e+01 5.929462770061728349e+01 5.964207609953703582e+01 5.976085696373456813e+01 5.868566261574073906e+01 5.556635223765432130e+01 5.415841290509258954e+01 5.378789834104937739e+01 5.369652922453703781e+01 5.369759066358025024e+01 5.373883101851851762e+01 5.389138454861111427e+01 5.414405767746913511e+01 5.431593267746913511e+01 5.437241271219135541e+01 5.438877218364196864e+01 5.448821952160493964e+01 5.469351273148148351e+01 5.500491030092592126e+01 5.537839120370369983e+01 5.578808159722222371e+01 5.617964988425925554e+01 5.654992621527777885e+01 5.687768759645061323e+01 5.781031925154320561e+01 5.793042052469135683e+01 5.809084828317900673e+01 5.827818913966049053e+01 5.848689187885802454e+01 5.875448254243827506e+01 5.907744646990740733e+01 5.948310522762345443e+01 5.986957658179012043e+01 5.985658179012345670e+01 5.828459490740740989e+01 5.537988811728395433e+01 5.431838541666666487e+01 5.404620949074074332e+01 5.402843171296296276e+01 5.408566599151235010e+01 5.419214795524690942e+01 5.441439814814815179e+01 5.466444492669752719e+01 5.476901089891975261e+01 5.474344907407407845e+01 5.470830729166667084e+01 5.476062692901234641e+01 5.491934220679011958e+01 5.517813175154321215e+01 5.553376977237654444e+01 5.592035831404320589e+01 5.628435040509258869e+01 5.660135320216048882e+01 5.690001832561728179e+01 5.716481143904320561e+01 5.797654031635802596e+01 5.811783130787036811e+01 5.828249373070988071e+01 5.851303964120370438e+01 5.878414255401234101e+01 5.909528211805555742e+01 5.909457079475308916e+01 5.788195119598765359e+01 5.518763503086420030e+01 5.438160300925925839e+01 5.409495177469135996e+01 5.408031539351851791e+01 5.420843171296296248e+01 5.452108506944444599e+01 5.498465856481481495e+01 5.520408661265432215e+01 5.517342689043209703e+01 5.507294608410493453e+01 5.503884259259258727e+01 5.512166521990740620e+01 5.532944251543209901e+01 5.564369743441358196e+01 5.604431182484567842e+01 5.651071228780863720e+01 5.696861545138889227e+01 5.733070457175925583e+01 5.761071084104938222e+01 5.786368007330247565e+01 5.812547501929012839e+01 5.841230902777777345e+01 5.873080102237654643e+01 5.970432146990741273e+01 5.969305603780863834e+01 5.839318094135802539e+01 5.517178192515432755e+01 5.400843942901234840e+01 5.362127459490740478e+01 5.353290653935184906e+01 5.356650125385802852e+01 5.367649353780864629e+01 5.391896219135801971e+01 5.418311873070987161e+01 5.429986352237654756e+01 5.427440489969136195e+01 5.426250916280864089e+01 5.434193672839506206e+01 5.454994454089506206e+01 5.522362509645061834e+01 5.565044319058642230e+01 5.609839216820987673e+01 5.649902488425926350e+01 5.683980034722222285e+01 5.714093026620370352e+01 5.740772521219135882e+01 5.765443962191358196e+01 5.789950086805555429e+01 5.816744212962963445e+01 5.851868875385802227e+01 5.899694878472222115e+01 5.934841338734567984e+01 5.911768663194444429e+01 5.578022521219135399e+01 5.398523582175926094e+01 5.326541136188271963e+01 5.307978250385802710e+01 5.305948447145062374e+01 5.305837480709876530e+01 5.315069926697530889e+01 5.339697386188272077e+01 5.366694444444444656e+01 5.379606867283950322e+01 5.383209780092592922e+01 5.389464409722221916e+01 5.405239969135802625e+01 5.432126929012345329e+01 5.472457658179012441e+01 5.520138117283951118e+01 5.567158227237653989e+01 5.609851707175926094e+01 5.645320264274691624e+01 5.676817660108024910e+01 5.705126977237654273e+01 5.732889901620370665e+01 5.757764853395062232e+01 5.786536892361110773e+01 5.820003616898148380e+01 5.855725549768518334e+01 5.893691261574073792e+01 5.933074893904321101e+01 5.975460310570987588e+01 6.014407986111110915e+01 5.998016251929012554e+01 5.682318287037036697e+01 5.483010368441357940e+01 5.384296151620370097e+01 5.359692563657407760e+01 5.358855468750000028e+01 5.362507474922839634e+01 5.370156008873456699e+01 5.390904755015431959e+01 5.417730034722222143e+01 5.429148630401234499e+01 5.428902633101851904e+01 5.430513261959876559e+01 5.441828655478395405e+01 5.464727575231481893e+01 5.500931182484568183e+01 5.543421199845678871e+01 5.588815682870369983e+01 5.631394675925925952e+01 5.667287085262346125e+01 5.696805459104938052e+01 5.724373890817901156e+01 5.753488908179011929e+01 5.781979407793209447e+01 5.812955632716049337e+01 5.846095244984567785e+01 5.878943576388888914e+01 5.915090856481481296e+01 5.949963155864197262e+01 5.988361930941358224e+01 6.017250144675925583e+01 5.971150028935185361e+01 5.617993344907407760e+01 5.507480372299382054e+01 5.438055844907407987e+01 5.420014949845679553e+01 5.424987750771605022e+01 5.441275125385802625e+01 5.473998263888888971e+01 5.512353250385802994e+01 5.525632282021604880e+01 5.519295090663580083e+01 5.510418885030863834e+01 5.512020592206790326e+01 5.526805266203703582e+01 5.555181905864197489e+01 5.596030430169753345e+01 5.687610628858024597e+01 5.727684413580247025e+01 5.764888599537037095e+01 5.795667534722222314e+01 5.821639949845678785e+01 5.848068335262345840e+01 5.874849874614197631e+01 5.903730275848765530e+01 5.937258439429012213e+01 5.974690489969135854e+01 6.011779803240740705e+01 6.006158564814814582e+01 5.820466869212962990e+01 5.527393277391975346e+01 5.428575858410493993e+01 5.353965181327160394e+01 5.374794415509258982e+01 5.399761718749999773e+01 5.432330005787036953e+01 5.476849247685185418e+01 5.508121431327160167e+01 5.513810329861111370e+01 5.506248987268518391e+01 5.503084587191358423e+01 5.512517264660493765e+01 5.535200038580246940e+01 5.571216483410493936e+01 5.614384452160493311e+01 5.664899257330247195e+01 5.709039978780863578e+01 5.748665653935185560e+01 5.780361111111110972e+01 5.810335696373456926e+01 5.838176649305555799e+01 5.867439380787037351e+01 5.895695312499999829e+01 5.925354986496913767e+01 5.959605854552469140e+01 5.995960744598765757e+01 6.038193238811728492e+01 6.072747492283950521e+01 6.026090326003086517e+01 5.712214554398148181e+01 5.464747781635801971e+01 5.396233506944444258e+01 5.377677903163580453e+01 5.366787905092592581e+01 5.373418788580246996e+01 5.381920814043209589e+01 5.404050733024691056e+01 5.425542775848764876e+01 5.433891059027777715e+01 5.434313223379629676e+01 5.438300540123456983e+01 5.453583526234567813e+01 5.481526475694444400e+01 5.522835358796295679e+01 5.570960889274691397e+01 5.624167245370369983e+01 5.668570360725308888e+01 5.705967206790123214e+01 5.738099006558641690e+01 5.767316936728395405e+01 5.798718412422839208e+01 5.831465518904321499e+01 5.865934799382716136e+01 5.898614149305555543e+01 5.934412037037036924e+01 5.971167197145061323e+01 6.015436005015432386e+01 6.059054591049382310e+01 6.090997540509259522e+01 6.023035349151234641e+01 5.684975260416666742e+01 5.465813126929012356e+01 5.406078703703703781e+01 5.391758584104938024e+01 5.392619550540123186e+01 5.400330295138888914e+01 5.413763744212963047e+01 5.437429880401234072e+01 5.459414641203703411e+01 5.464610918209876900e+01 5.462452739197531315e+01 5.464376012731482035e+01 5.478844425154321129e+01 5.503397714120370665e+01 5.539817274305556083e+01 5.583043643904321129e+01 5.628733603395061635e+01 5.670858506944444599e+01 5.741823929398148607e+01 5.769395785108024910e+01 5.793656973379629704e+01 5.821508439429012327e+01 5.847503182870370608e+01 5.875341820987654273e+01 5.907991849922839833e+01 5.946969714506172977e+01 5.987193913966049053e+01 5.993924238040123242e+01 5.854457127700617036e+01 5.549482445987653989e+01 5.424684076003086375e+01 5.394285927854937768e+01 5.393046875000000284e+01 5.408559076003086119e+01 5.479665605709876530e+01 5.505879822530864232e+01 5.523546778549382452e+01 5.518889178240740989e+01 5.504146701388889085e+01 5.496798514660493851e+01 5.502727912808641975e+01 5.522950327932098702e+01 5.552729263117284120e+01 5.590197627314815065e+01 5.630255787037036441e+01 5.672954282407407334e+01 5.713361255787036441e+01 5.748509500385802085e+01 5.774993489583333428e+01 5.799349488811728293e+01 5.824379484953703923e+01 5.851676552854938507e+01 5.885802372685185446e+01 5.923724054783951232e+01 5.945623697916666828e+01 5.873516059027777203e+01 5.563384259259259323e+01 5.396212962962962933e+01 5.352666521990740733e+01 5.345118200231481609e+01 5.355064573688271423e+01 5.376360146604937995e+01 5.410375964506172863e+01 5.445666714891975602e+01 5.461948206018518448e+01 5.473900655864197518e+01 5.474620225694444287e+01 5.480456741898148465e+01 5.499081259645061692e+01 5.528161458333333655e+01 5.567727623456790553e+01 5.613159625771604766e+01 5.657687258873456670e+01 5.700709056712963019e+01 5.737911168981482035e+01 5.771116849922839975e+01 5.799537663966049195e+01 5.827977816358024654e+01 5.856099826388889085e+01 5.885299334490740364e+01 5.918838638117284034e+01 5.956348283179011815e+01 5.997341001157407447e+01 6.007899160879629363e+01 5.861979407793209873e+01 5.519243537808642230e+01 5.371787326388889028e+01 5.341007282021605107e+01 5.335287278163580282e+01 5.338583767361111398e+01 5.339946180555555344e+01 5.355156828703703553e+01 5.383194878472222200e+01 5.403854552469135797e+01 5.408516396604937881e+01 5.409174575617284120e+01 5.439903067129629477e+01 5.459214023919753345e+01 5.485234230324073934e+01 5.521439043209876019e+01 5.565080584490740989e+01 5.608497299382716506e+01 5.652285783179011958e+01 5.690117428626543017e+01 5.722138551311728349e+01 5.753471113040123441e+01 5.782735291280864232e+01 5.814639805169753117e+01 5.844759403935185560e+01 5.909082754629629619e+01 5.948249807098765274e+01 5.990532648533950066e+01 6.022710599922839947e+01 5.966616560570987815e+01 5.643597849151235124e+01 5.423705198688271167e+01 5.357405333719135854e+01 5.337554832175926123e+01 5.337090181327160821e+01 5.339520640432098730e+01 5.350920138888888999e+01 5.375930410879630017e+01 5.395408034336419689e+01 5.399847993827160053e+01 5.397229793595678871e+01 5.398932002314814582e+01 5.444317081404321357e+01 5.465552662037037379e+01 5.493921006944444940e+01 5.527414158950617207e+01 5.564913821373456670e+01 5.603506462191357684e+01 5.638888695987654387e+01 5.668534384645062119e+01 5.692941068672839577e+01 5.720829282407407845e+01 5.748133294753086631e+01 5.775298562885802767e+01 5.803112027391975403e+01 5.833779272762345869e+01 5.869160686728395149e+01 5.907443190586419490e+01 5.925627652391975886e+01 5.840975887345678785e+01 5.539195794753086233e+01 5.388304783950616894e+01 5.353157310956790127e+01 5.347282310956789786e+01 5.357350453317901184e+01 5.378826147762345755e+01 5.420179783950617036e+01 5.456334731867283949e+01 5.464377700617284006e+01 5.455891782407407220e+01 5.449367573302469481e+01 5.454604166666666742e+01 5.474182388117284148e+01 5.565628713348765899e+01 5.588095437885802852e+01 5.614882571373456699e+01 5.645813560956790411e+01 5.677749903549382537e+01 5.707589072145061948e+01 5.734964168595679013e+01 5.761033323688271679e+01 5.788183931327160536e+01 5.816605951003086261e+01 5.846543933256172920e+01 5.881039014274691112e+01 5.920965518904321101e+01 5.957716628086419774e+01 5.932480227623457125e+01 5.680666377314815207e+01 5.424799720293210470e+01 5.355121624228395660e+01 5.333856674382715823e+01 5.332319203317901213e+01 5.340962046682098929e+01 5.361283082561728719e+01 5.394175684799382964e+01 5.416774353780864004e+01 5.422271460262345499e+01 5.418905430169752435e+01 5.419433593750000000e+01 5.431942467206790326e+01 5.458421489197530718e+01 5.495457561728395035e+01 5.539764274691358281e+01 5.663056327160493453e+01 5.679385271990740591e+01 5.697475887345679268e+01 5.717610146604938137e+01 5.740524884259259153e+01 5.766054108796296163e+01 5.794212914737654785e+01 5.823710648148147584e+01 5.850345196759259636e+01 5.884092592592592297e+01 5.919881992669752435e+01 5.960668547453703781e+01 6.000795283564814753e+01 5.798184268904321215e+01 5.465166377314815094e+01 5.336540268132716136e+01 5.307938368055555856e+01 5.301170380015432215e+01 5.299671971450617036e+01 5.302093508873456784e+01 5.317061246141975062e+01 5.344116222993827137e+01 5.359917390046296504e+01 5.364961805555555685e+01 5.366356722608024654e+01 5.377147038966049308e+01 5.395996720679011815e+01 5.427553433641975289e+01 5.469344762731481779e+01 5.518275559413580567e+01 5.638485435956790326e+01 5.654627025462963275e+01 5.674043643904321499e+01 5.694937499999999631e+01 5.719076292438271736e+01 5.745668740354938109e+01 5.776227816358024114e+01 5.807518518518518391e+01 5.842940779320987588e+01 5.878398871527777203e+01 5.913047743055555827e+01 5.952956838348764990e+01 5.993626832561728435e+01 6.024106481481481268e+01 5.971623649691358082e+01 5.648824797453703894e+01 5.430553096064814866e+01 5.353088975694444684e+01 5.333922598379629676e+01 5.333489969135802511e+01 5.336038290895061209e+01 5.344825038580247423e+01 5.365697627314815321e+01 5.384666618441358565e+01 5.390814525462963047e+01 5.389147714120370125e+01 5.392075810185185247e+01 5.406049238040123583e+01 5.429760657793210044e+01 5.463603925540122930e+01 5.503235291280864061e+01 5.613681182484567245e+01 5.631943817515432471e+01 5.650850887345679041e+01 5.671587384259259323e+01 5.694532889660494135e+01 5.717577353395061834e+01 5.742904272762345386e+01 5.771266878858024540e+01 5.802495466820987957e+01 5.836904996141975488e+01 5.872989342206790297e+01 5.913840615354938279e+01 5.940153838734568126e+01 5.881101610725308149e+01 5.594479552469135797e+01 5.407742235725308433e+01 5.361254774305555060e+01 5.350562114197530406e+01 5.358453173225309030e+01 5.380538676697531031e+01 5.417700183256172863e+01 5.454615837191358452e+01 5.465626302083332888e+01 5.457944540895061891e+01 5.449146508487654472e+01 5.453358699845679070e+01 5.467741994598765132e+01 5.493695360725308774e+01 5.531019820601851933e+01 5.576612943672839862e+01 5.618851803626543528e+01 5.729664834104938365e+01 5.744909866898148465e+01 5.760770881558642031e+01 5.778982687114197603e+01 5.798698736496913853e+01 5.820974537037037067e+01 5.845045235339505751e+01 5.873941695601851620e+01 5.909891685956790042e+01 5.951158661265431959e+01 5.962338396990740819e+01 5.834666329089505865e+01 5.356513551311728349e+01 5.315741705246913540e+01 5.308243248456790297e+01 5.314112461419752975e+01 5.324948447145061436e+01 5.347978732638888744e+01 5.379560860339506689e+01 5.394437355324074446e+01 5.394606867283950180e+01 5.392226610725308689e+01 5.398773196373456784e+01 5.415772135416666799e+01 5.448085792824073792e+01 5.490190586419753060e+01 5.535244984567901128e+01 5.579205922067901469e+01 5.616889708719135399e+01 5.647879388503086773e+01 5.738802613811728293e+01 5.750968219521605107e+01 5.764043885030864089e+01 5.782679108796295964e+01 5.803729021990740478e+01 5.829502459490741018e+01 5.861937162422839975e+01 5.899584346064815321e+01 5.943975501543209816e+01 5.964960358796296447e+01 5.869644868827160167e+01 5.525556471836419803e+01 5.330066020447530661e+01 5.283760079089506689e+01 5.274190682870370495e+01 5.275155526620370239e+01 5.273983362268518249e+01 5.283211275077160707e+01 5.306221836419752691e+01 5.331290461033950834e+01 5.341440007716049365e+01 5.342991174768518192e+01 5.348216820987654785e+01 5.364827883873456926e+01 5.391169994212962990e+01 5.430436053240740790e+01 5.474117959104938791e+01 5.519561873070987446e+01 5.566719569830247138e+01 5.603257860725308603e+01 5.636360435956790127e+01 5.722234760802469111e+01 5.735740065586419689e+01 5.750431327160493566e+01 5.771501157407407590e+01 5.794606674382715994e+01 5.822469232253086346e+01 5.854475501543210214e+01 5.888253906250000114e+01 5.923843026620370011e+01 5.909107156635802482e+01 5.692205825617283921e+01 5.410287181712963189e+01 5.313237557870370154e+01 5.285169126157407504e+01 5.282561631944444258e+01 5.287267939814815065e+01 5.299291956018518590e+01 5.325716628086419746e+01 5.350484809027778255e+01 5.358137731481480870e+01 5.352509259259259267e+01 5.350073881172839663e+01 5.358110291280864601e+01 5.377487654320987787e+01 5.408460021219136138e+01 5.449671633873456500e+01 5.488766444830246627e+01 5.524026620370370466e+01 5.558044994212963275e+01 5.588388744212962678e+01 5.618147135416666060e+01 5.699258342978394865e+01 5.712633535879629676e+01 5.724679012345679041e+01 5.740856867283950749e+01 5.765358024691358452e+01 5.797042582947531031e+01 5.834131365740741160e+01 5.847580584490741273e+01 5.757943624614197375e+01 5.457161603009259210e+01 5.282976417824073678e+01 5.274866512345678871e+01 5.285590084876542960e+01 5.311447530864197120e+01 5.354332561728394779e+01 5.389802854938271537e+01 5.401292968750000512e+01 5.395059558256172494e+01 5.389873697916667084e+01 5.395303385416666941e+01 5.412734230324073792e+01 5.439851417824073820e+01 5.476789592978395405e+01 5.519386718750000398e+01 5.562972656250000369e+01 5.601820842978395376e+01 5.636779369212963076e+01 5.667390335648148181e+01 5.696824893904321385e+01 5.724231240354938421e+01 5.801438512731481012e+01 5.816023533950617264e+01 5.833436728395061976e+01 5.864393180941357997e+01 5.896816068672839606e+01 5.884461033950617548e+01 5.669469232253086233e+01 5.390890046296296845e+01 5.277367525077160337e+01 5.246609085648148607e+01 5.242959731867284034e+01 5.249293788580246911e+01 5.261831548996913455e+01 5.286010947145061323e+01 5.311809702932098531e+01 5.323778645833333201e+01 5.320202594521605022e+01 5.315927131558642316e+01 5.322606963734567387e+01 5.340747202932099214e+01 5.368760464891975204e+01 5.408648919753086659e+01 5.452458912037037209e+01 5.494646508487654302e+01 5.532122781635802511e+01 5.564547598379629534e+01 5.592896074459876132e+01 5.617933786651234840e+01 5.643212239583333201e+01 5.669648244598765530e+01 5.698554928626543159e+01 5.783907455632716221e+01 5.802502893518518334e+01 5.823208526234567728e+01 5.843921344521604766e+01 5.803145592206789871e+01 5.523340084876542733e+01 5.290696084104938279e+01 5.229004967206790155e+01 5.215622106481481524e+01 5.217926697530863578e+01 5.220425057870370011e+01 5.228167438271605505e+01 5.247738233024691112e+01 5.269192129629630017e+01 5.277982783564814895e+01 5.278111448688271423e+01 5.282864583333333286e+01 5.296315538194443917e+01 5.324232301311728577e+01 5.362131944444444542e+01 5.407102671682098816e+01 5.455783227237654387e+01 5.500988136574073906e+01 5.543837577160493879e+01 5.579143952546296248e+01 5.608606770833333144e+01 5.638531057098764876e+01 5.668776523919753174e+01 5.700794511959876587e+01 5.733698350694444201e+01 5.768646363811728150e+01 5.873978732638889255e+01 5.892830536265432073e+01 5.913754147376543102e+01 5.897426263503086119e+01 5.670513358410494220e+01 5.399933449074074332e+01 5.315075665509259295e+01 5.285516010802469111e+01 5.284814284336419377e+01 5.293024980709876814e+01 5.338893084490740648e+01 5.365197096836419632e+01 5.373274691358025024e+01 5.368362654320987559e+01 5.366266541280863578e+01 5.376493200231481495e+01 5.396608217592592638e+01 5.426697482638888914e+01 5.462501929012346125e+01 5.501416907793210243e+01 5.538351948302469197e+01 5.572614872685185361e+01 5.603823398919752918e+01 5.627976948302468685e+01 5.653451437114197375e+01 5.679792390046296191e+01 5.705255063657406822e+01 5.734625289351851762e+01 5.769726369598765814e+01 5.807761188271604880e+01 5.898019868827160650e+01 5.849003761574073934e+01 5.557495949074074559e+01 5.372872685185185304e+01 5.313715084876542960e+01 5.298061005015431846e+01 5.302656684027777345e+01 5.323951003086419576e+01 5.362510079089506121e+01 5.409086853780864601e+01 5.427259307484568041e+01 5.423198157793210328e+01 5.414458863811728406e+01 5.414891107253086489e+01 5.427456452546296362e+01 5.450845871913580254e+01 5.484389371141975289e+01 5.522743537808641889e+01 5.564669367283951118e+01 5.601974103009258954e+01 5.634750723379629989e+01 5.665244646990741018e+01 5.691428626543210356e+01 5.720022231867284290e+01 5.745443672839505922e+01 5.776519338348764876e+01 5.810131365740740250e+01 5.866385416666666686e+01
3.952308545524691130e+00 3.943656442901234627e+00 3.711406250000000018e+00 2.903917824074073728e+00 2.773726851851851638e+00 2.886897665895061582e+00 2.982279128086419817e+00 3.062338927469135719e+00 3.130749903549382651e+00 3.188214699074074066e+00 3.230783179012345574e+00 3.273671875000000231e+00 3.299873167438271526e+00 3.319011863425926023e+00 3.322832754629629903e+00 3.447686631944444358e+00 3.399793595679012181e+00 3.410440297067901305e+00 3.408886477623456646e+00 3.374782503858024807e+00 3.167021604938271562e+00 3.023191550925925952e+00 2.903614004629629264e+00 2.964959972993827186e+00 3.104362943672839492e+00 3.116304494598765462e+00 3.149109760802469182e+00 3.167741608796295960e+00 3.199654706790123537e+00 3.243274980709876409e+00 3.264278549382715777e+00 3.300285493827160632e+00 3.287729070216049543e+00 3.229945987654320838e+00 3.168892746913580361e+00 3.136273630401234414e+00 3.137681809413580325e+00 3.167849151234567895e+00 3.199774305555555642e+00 3.242925829475308497e+00 3.286286168981481737e+00 3.310723861882716168e+00 3.324932002314814561e+00 3.353887924382715990e+00 3.361180073302469040e+00 3.372905574845678878e+00 3.369097704475308319e+00 3.367824556327160490e+00 3.328782793209876800e+00 3.262187500000000018e+00 3.139453125000000178e+00 3.103714313271605185e+00 3.089424189814814703e+00 3.120522280092592471e+00 3.183233506944444624e+00 3.245886381172839563e+00 3.243913001543209607e+00 3.261997010030864175e+00 3.232058738425926059e+00 3.202672646604938222e+00 3.202764756944444624e+00 3.261928530092592649e+00 3.409590567129629601e+00 3.414610339506172654e+00 3.371392264660493687e+00 3.315177951388888822e+00 3.273214699074074030e+00 3.257111304012345609e+00 3.279048514660494185e+00 3.296551890432098730e+00 3.321879340277777537e+00 3.335786554783950919e+00 3.348240740740740851e+00 3.348047839506173240e+00 3.327462384259259220e+00 3.255207851080247128e+00 3.191746720679012217e+00 3.106045524691357862e+00 3.090700713734567895e+00 3.062550154320987872e+00 3.072432002314814614e+00 3.098935667438271313e+00 3.139194637345679162e+00 3.186654610339506366e+00 3.217370756172839297e+00 3.218316454475308674e+00 3.189821084104937921e+00 3.190298996913580432e+00 3.225602334104938240e+00 3.251143904320987765e+00 3.243378665123457072e+00 3.227057773919753014e+00 3.218277874228395063e+00 3.435585455246913611e+00 3.417540991512345361e+00 3.395986207561728421e+00 3.380008198302468791e+00 3.379608892746913895e+00 3.363935185185185528e+00 3.352649016203703702e+00 3.333304398148148273e+00 3.318942418981481346e+00 3.298940489969135914e+00 3.310069926697530640e+00 3.219430941358024878e+00 3.118598090277777679e+00 3.040499614197531120e+00 3.013236882716049170e+00 3.014767554012345752e+00 3.023224826388888786e+00 3.052984182098765320e+00 3.103783275462963065e+00 3.164303626543209624e+00 3.195499131944444571e+00 3.191182484567901323e+00 3.186297743055555465e+00 3.199097704475308834e+00 3.224511959876543266e+00 3.226412519290123626e+00 3.211607831790123768e+00 3.195765335648148131e+00 3.224966724537037255e+00 3.243498263888889177e+00 3.277555459104938063e+00 3.306786747685185102e+00 3.316124614197530907e+00 3.319310378086419711e+00 3.318587480709876303e+00 3.321556230709876711e+00 3.311370563271604617e+00 3.305470196759259238e+00 3.302240065586419693e+00 3.315134548611111232e+00 3.286558159722221983e+00 3.233657407407407369e+00 3.113094618055555429e+00 3.059157503858024985e+00 3.016131847993826831e+00 3.025058352623456681e+00 3.054353298611110823e+00 3.098082079475308337e+00 3.155092592592592560e+00 3.201960358796296369e+00 3.206381172839506188e+00 3.184722704475308586e+00 3.165801022376542928e+00 3.174273726851851496e+00 3.214045621141975229e+00 3.238938560956790003e+00 3.222163387345678753e+00 3.226919367283950457e+00 3.233651138117283885e+00 3.254326774691358004e+00 3.265536747685185315e+00 3.278260030864197816e+00 3.310044849537036704e+00 3.329187885802469271e+00 3.337952835648148042e+00 3.336500771604938187e+00 3.320129243827160792e+00 3.311983989197531120e+00 3.283843074845679055e+00 3.226739969135802522e+00 3.102537615740740495e+00 3.067210648148148255e+00 3.048546971450617260e+00 3.059335455246913416e+00 3.109397183641975371e+00 3.174569347993827062e+00 3.210284047067901270e+00 3.215072337962962656e+00 3.184051890432098464e+00 3.140085841049382598e+00 3.131551408179012341e+00 3.160948591820987641e+00 3.209687500000000249e+00 3.225146604938271544e+00 3.213847897376543195e+00 3.225105613425925721e+00 3.247528452932098464e+00 3.267807677469135808e+00 3.283076292438271704e+00 3.288113908179012057e+00 3.297618152006172920e+00 3.318088348765432016e+00 3.327219328703703738e+00 3.323372878086419568e+00 3.290516493055555713e+00 3.216637249228395223e+00 3.080008198302468969e+00 3.046461226851851833e+00 3.013472704475308905e+00 3.003193479938271793e+00 3.026175733024691450e+00 3.064295910493826991e+00 3.129144483024691503e+00 3.168729745370370665e+00 3.178312114197530569e+00 3.150207851080247146e+00 3.143274016203703614e+00 3.164505208333333375e+00 3.190534818672839279e+00 3.175992476851852153e+00 3.183891300154320980e+00 3.193500675154321122e+00 3.217218364197530711e+00 3.237152777777777768e+00 3.264442033179012270e+00 3.273241222993827026e+00 3.271757330246913398e+00 3.279649884259259185e+00 3.274569830246913504e+00 3.288278356481481257e+00 3.290469232253086407e+00 3.281786747685185190e+00 3.201617959104938294e+00 3.207381365740741064e+00 3.049045621141975193e+00 3.011029610339506224e+00 2.996536458333333375e+00 3.008397472993826760e+00 3.011477623456790376e+00 3.041666666666666519e+00 3.110995852623456681e+00 3.140412326388888786e+00 3.151627604166666874e+00 3.139909818672839581e+00 3.140933159722222090e+00 3.163102816358024594e+00 3.179376446759259345e+00 3.172473958333333233e+00 3.187177854938271881e+00 3.218675250771604990e+00 3.235367476851851887e+00 3.245148051697530622e+00 3.241636766975308337e+00 3.242944155092592595e+00 3.245321662808641872e+00 3.250478395061728421e+00 3.251559606481481346e+00 3.275004822530864335e+00 3.263453414351851656e+00 3.277392939814814721e+00 3.271973861882716328e+00 3.273526716820987392e+00 3.271336323302469040e+00 3.230484182098765533e+00 3.267711226851852224e+00 3.086741898148148255e+00 3.043278356481481595e+00 3.019694251543209695e+00 3.032002797067901323e+00 3.040486111111111001e+00 3.067095389660493776e+00 3.121701871141975282e+00 3.161945891203703951e+00 3.179495563271605096e+00 3.155088252314814934e+00 3.149394290123456841e+00 3.173925540123456734e+00 3.191752507716049347e+00 3.190829475308642138e+00 3.194852912808642031e+00 3.202686631944444695e+00 3.229830729166666803e+00 3.235713734567901234e+00 3.242806712962962745e+00 3.241963734567901323e+00 3.252810088734567895e+00 3.260929301697530480e+00 3.269824942129629264e+00 3.280018325617283903e+00 3.267674575617284027e+00 3.276907310956790109e+00 3.277146990740740673e+00 3.274239004629629690e+00 3.286036844135802326e+00 3.196628086419752712e+00 3.267592592592592382e+00 3.166537422839506455e+00 3.108387345679012537e+00 3.073394579475308586e+00 3.083753858024691485e+00 3.124709201388888857e+00 3.175204957561728047e+00 3.199778645833333712e+00 3.202916666666666856e+00 3.164168595679012430e+00 3.128819926697530729e+00 3.137916184413580112e+00 3.186270736882716115e+00 3.213632812499999769e+00 3.216020929783950599e+00 3.252875675154320856e+00 3.248439911265431856e+00 3.247403549382716026e+00 3.263640528549383024e+00 3.275072820216049063e+00 3.290475019290123537e+00 3.294237557870370647e+00 3.303365644290123360e+00 3.291516685956790145e+00 3.297416087962962816e+00 3.291579378858024985e+00 3.262807195216049561e+00 3.189541377314814685e+00 3.072068865740740673e+00 3.051916473765432070e+00 3.128509355709876871e+00 3.163512249228395135e+00 3.180066068672839474e+00 3.187461419753086389e+00 3.175990547839506295e+00 3.170506365740740851e+00 3.152441647376543088e+00 3.108480902777777999e+00 3.086702835648147847e+00 3.122515914351851496e+00 3.161688368055555642e+00 3.171863908179012537e+00 3.193029996141975246e+00 3.217433931327160490e+00 3.223964120370370168e+00 3.242124807098765160e+00 3.250444637345679233e+00 3.249975405092592418e+00 3.259718364197531137e+00 3.258614969135802397e+00 3.271711998456790393e+00 3.280040991512345627e+00 3.278491030092592240e+00 3.276753954475308817e+00 3.273205536265432425e+00 3.282745466820987890e+00 3.201816647376543479e+00 3.099069251543209891e+00 3.033532986111111107e+00 3.021637731481481737e+00 3.001484857253086336e+00 3.116420717592592649e+00 3.105328414351851585e+00 3.109581404320987730e+00 3.140440779320987641e+00 3.147383294753086425e+00 3.144590084876543568e+00 3.130510223765432087e+00 3.131907310956790091e+00 3.163067611882715902e+00 3.161751543209876392e+00 3.149838445216049720e+00 3.158453414351851674e+00 3.176496431327160419e+00 3.202853491512345663e+00 3.209049479166666607e+00 3.213535879629629832e+00 3.212724247685185386e+00 3.215706983024691379e+00 3.214983121141975264e+00 3.241266396604938205e+00 3.242228973765432176e+00 3.247945601851851993e+00 3.247996720679012128e+00 3.272762345679012697e+00 3.270899402006173240e+00 3.304334008487654462e+00 3.210108989197530960e+00 3.110772569444444358e+00 3.048954475308641943e+00 3.024981674382716257e+00 3.020386766975308834e+00 3.119430941358024789e+00 3.113296682098765533e+00 3.129161361882716097e+00 3.159150270061728438e+00 3.173624131944444482e+00 3.161536458333333410e+00 3.132846257716049632e+00 3.129582851080246808e+00 3.151742862654320909e+00 3.159686053240740922e+00 3.157346161265432105e+00 3.181662326388889017e+00 3.195425829475308621e+00 3.216432773919753352e+00 3.218261959876543177e+00 3.213802083333333393e+00 3.223471257716049365e+00 3.237513020833333144e+00 3.258851273148148042e+00 3.257101658950617207e+00 3.265011091820988032e+00 3.260549286265431945e+00 3.260570023148148255e+00 3.248756269290123289e+00 3.197438753858024896e+00 3.047777295524691343e+00 2.999491222993827311e+00 2.978284143518518334e+00 2.985189525462963012e+00 3.041466049382715919e+00 3.132649016203703951e+00 3.185409432870370150e+00 3.192481192129629441e+00 3.148913966049382562e+00 3.081065297067901110e+00 3.048309220679012110e+00 3.070370852623456770e+00 3.129781539351851993e+00 3.159518229166666803e+00 3.166981095679012537e+00 3.148809799382715990e+00 3.160067515432098961e+00 3.189999999999999947e+00 3.217094425154320980e+00 3.219674961419753068e+00 3.230802951388889177e+00 3.240333236882716239e+00 3.256123649691358146e+00 3.251696084104938489e+00 3.229101562499999911e+00 3.251206597222222161e+00 3.149858217592592879e+00 3.034115547839506544e+00 2.991781925154321176e+00 2.951608314043209891e+00 2.955342399691358146e+00 2.990479359567900897e+00 3.060243537808641889e+00 3.110153356481481168e+00 3.124782503858024807e+00 3.126529224537037077e+00 3.104719810956790393e+00 3.086895736882715902e+00 3.092080439814814952e+00 3.126482928240740922e+00 3.128269193672839510e+00 3.135825617283950706e+00 3.129120852623457072e+00 3.151276041666666750e+00 3.161855709876543408e+00 3.171332465277777679e+00 3.180304301697530978e+00 3.190380979938271633e+00 3.211676311728395294e+00 3.221073977623456930e+00 3.231886091820987961e+00 3.237418981481481328e+00 3.227105034722222321e+00 3.244069251543209909e+00 3.254752604166666785e+00 3.170972222222222303e+00 3.044129533179012359e+00 2.954411651234567504e+00 2.916952642746913682e+00 2.911555266203703862e+00 2.921867283950617455e+00 2.943803047839506082e+00 2.992963445216049401e+00 3.058831500771604706e+00 3.088272569444444393e+00 3.079098668981481435e+00 3.071171392746913753e+00 3.093089795524691432e+00 3.119877507716048992e+00 3.145869502314814881e+00 3.143178530092592737e+00 3.134976369598765800e+00 3.140321662808641889e+00 3.152384259259259025e+00 3.159913194444444517e+00 3.166666666666666519e+00 3.172363040123456823e+00 3.180599922839506544e+00 3.193036265432098730e+00 3.207636959876543070e+00 3.215716628086419782e+00 3.224322916666666927e+00 3.221745273919752961e+00 3.249333526234567504e+00 3.153492476851851745e+00 3.050793306327160614e+00 2.971427469135802468e+00 2.954236111111110841e+00 2.932126253858025056e+00 2.939629629629629815e+00 2.956222029320987765e+00 3.000353973765432336e+00 3.067027391975308603e+00 3.093622202932098553e+00 3.088496817129629424e+00 3.068761091820987552e+00 3.073884548611110823e+00 3.101461709104938347e+00 3.132723283179012608e+00 3.154038387345678984e+00 3.156126543209876623e+00 3.143477044753086425e+00 3.131398533950617402e+00 3.136315104166666590e+00 3.150778838734567877e+00 3.157356288580246861e+00 3.185851658950617615e+00 3.195713252314814845e+00 3.213383005401234449e+00 3.228609182098765462e+00 3.222757040895061653e+00 3.220133101851851976e+00 3.198621238425926272e+00 3.217260802469136038e+00 3.132849151234567753e+00 3.017256944444444144e+00 2.971292920524691183e+00 2.939859664351851976e+00 2.941321373456790234e+00 2.977407407407407280e+00 3.029460358796296049e+00 3.083925057870370079e+00 3.097391493055555944e+00 3.098025655864197425e+00 3.055121527777777679e+00 3.019124710648148024e+00 3.042993827160493936e+00 3.102623939043209766e+00 3.125882040895061831e+00 3.160797646604938560e+00 3.190559413580246861e+00 3.176833526234568161e+00 3.168601466049382864e+00 3.155171682098765640e+00 3.157701581790123502e+00 3.174337866512345840e+00 3.183022762345678824e+00 3.197532793209876711e+00 3.212212577160493687e+00 3.224152681327160153e+00 3.217302758487654568e+00 3.218125964506172831e+00 3.152391493055555216e+00 3.046068190586419977e+00 2.942650945216049418e+00 2.933835841049382775e+00 2.920029899691358288e+00 2.931054205246913735e+00 2.963122106481481666e+00 3.027814429012345432e+00 3.075498167438271313e+00 3.083992573302469342e+00 3.075829957561728278e+00 3.050156732253086478e+00 3.052239583333333339e+00 3.089574170524691521e+00 3.103362268518518263e+00 3.101081693672839368e+00 3.077190393518518530e+00 3.146684510030864246e+00 3.168860435956790234e+00 3.181856674382715688e+00 3.182757523148148415e+00 3.194525462962963136e+00 3.199819637345679091e+00 3.206322337962963065e+00 3.207453703703703862e+00 3.197873746141975282e+00 3.223662712191358359e+00 3.216578896604938009e+00 3.216051793981481666e+00 3.214248649691358040e+00 3.108989197530864335e+00 2.988319830246913611e+00 2.943962673611111303e+00 2.907844810956790038e+00 2.897891589506172760e+00 2.901958912037037042e+00 2.918363715277777715e+00 2.979698109567901376e+00 3.052427179783950617e+00 3.078914448302469520e+00 3.077000385802469040e+00 3.074560185185185368e+00 3.096146315586419728e+00 3.109593460648148344e+00 3.099713541666667016e+00 3.061829668209876232e+00 3.075997781635802397e+00 3.141588541666666679e+00 3.174056712962962656e+00 3.175424864969135896e+00 3.174738136574073888e+00 3.202418016975308479e+00 3.193078221450617260e+00 3.196385995370370381e+00 3.191015142746913558e+00 3.189537037037037059e+00 3.200071373456789825e+00 3.224841820987654373e+00 3.241362364969135879e+00 3.235209780092592968e+00 3.257864583333333286e+00 3.140594618055555287e+00 3.008487172067901394e+00 2.956290027006172938e+00 2.934972993827160703e+00 2.911408179012345609e+00 2.930412326388888822e+00 2.947364969135802593e+00 2.976889949845678895e+00 3.037388599537036882e+00 3.077098283179012128e+00 3.075851176697530942e+00 3.062806230709876232e+00 3.071304012345678736e+00 3.098446180555555429e+00 3.119139178240740495e+00 3.114680748456790216e+00 3.090499131944444144e+00 3.133851755401234840e+00 3.163464988425926272e+00 3.178700327932098890e+00 3.176112557870370168e+00 3.189493634259259025e+00 3.191127025462963118e+00 3.194211516203703471e+00 3.205096450617284098e+00 3.199678819444444322e+00 3.204115547839506473e+00 3.193743248456789807e+00 3.214289158950617065e+00 3.229056712962962816e+00 3.119229359567901039e+00 3.005757137345678842e+00 2.956786747685185457e+00 2.920285011574073941e+00 2.912922935956790305e+00 2.952101176697531137e+00 3.012989486882716061e+00 3.064877989969135630e+00 3.079651813271604865e+00 3.089780574845678807e+00 3.039628182870370399e+00 3.001956500771604919e+00 3.024302662037036793e+00 3.075368923611111249e+00 3.116304976851851816e+00 3.092762827932098890e+00 3.100280189043210122e+00 3.111940104166666554e+00 3.166603491512345769e+00 3.183056520061728456e+00 3.198642939814814845e+00 3.203245081018518459e+00 3.216019965277777448e+00 3.224204282407407529e+00 3.225130690586419657e+00 3.218872010030863873e+00 3.208435570987654639e+00 3.202863136574074066e+00 3.205053047839506064e+00 3.122506751543209891e+00 2.964412133487654089e+00 2.934113136574073799e+00 2.924934413580246861e+00 2.938349247685185350e+00 2.979041763117284081e+00 3.033054591049382687e+00 3.070458140432098748e+00 3.074622878086419764e+00 3.068886477623456788e+00 3.053666087962962905e+00 3.064686053240740726e+00 3.104355227623456503e+00 3.096505594135802397e+00 3.064788290895061440e+00 3.055286940586419586e+00 3.094321952160493883e+00 3.114590084876543319e+00 3.127706886574074030e+00 3.174543788580247217e+00 3.179092881944444393e+00 3.184201871141975282e+00 3.198126929012345521e+00 3.218315489969135967e+00 3.210437885802469360e+00 3.203705150462963225e+00 3.187885802469135665e+00 3.195490451388888875e+00 3.214555844907407423e+00 3.101707175925926041e+00 2.971196469907407600e+00 2.919562596450617331e+00 2.905483699845679002e+00 2.896494984567901110e+00 2.898961226851851869e+00 2.898991608796296138e+00 2.937218846450617260e+00 3.002309027777777750e+00 3.043642939814815040e+00 3.058875385802469093e+00 3.054420814043210086e+00 3.057501446759259167e+00 3.088956404320987392e+00 3.074179205246913682e+00 3.054756462191357880e+00 3.045017361111111320e+00 3.068988715277777946e+00 3.110552179783950599e+00 3.121288097993827115e+00 3.133306327160493954e+00 3.158152970679012128e+00 3.174086612654321016e+00 3.194905960648148024e+00 3.207322530864197496e+00 3.215699266975308834e+00 3.216981577932098713e+00 3.212983217592592311e+00 3.199854841820987783e+00 3.191605902777777448e+00 3.142882908950617615e+00 3.047267071759259149e+00 2.926211902006172760e+00 2.904439139660493829e+00 2.874044174382715866e+00 2.880545428240740780e+00 2.907641782407407671e+00 2.952704475308641996e+00 3.007472029320987783e+00 3.038106192129629513e+00 3.049713541666666750e+00 3.015824652777777448e+00 3.005935570987654071e+00 3.043951581790123040e+00 3.085563753858024505e+00 3.101376350308641783e+00 3.071143904320987605e+00 3.071752025462962887e+00 3.078571566358024647e+00 3.082277199074074048e+00 3.106361400462962941e+00 3.123147183641975300e+00 3.157884355709876800e+00 3.165725308641975211e+00 3.171923225308642014e+00 3.181589988425925775e+00 3.194121817129629726e+00 3.186325231481481168e+00 3.185786072530864210e+00 3.187946084104938294e+00 3.065214602623456575e+00 2.937119984567901465e+00 2.888247492283950280e+00 2.884972993827160437e+00 2.929707754629629513e+00 2.992787422839506384e+00 3.030695408950617065e+00 3.043102816358024487e+00 3.040734471450617260e+00 3.002546296296296102e+00 2.979390914351851993e+00 2.997113233024691681e+00 3.048711419753086016e+00 3.070936053240740815e+00 3.064439621913580325e+00 3.043545524691357862e+00 3.070024594907407423e+00 3.108610628858024416e+00 3.129464699074074208e+00 3.135771604938271562e+00 3.144178240740740815e+00 3.144144000771604830e+00 3.176779031635802664e+00 3.193935667438271953e+00 3.208848861882716008e+00 3.217194251543209926e+00 3.224182581018518512e+00 3.159285783179012430e+00 3.026524884259259363e+00 2.926317515432098837e+00 2.885775945216049632e+00 2.861914062499999911e+00 2.862657214506172831e+00 2.888614969135802735e+00 2.937378472222222481e+00 2.994633487654321247e+00 3.022257908950617189e+00 3.033531539351852047e+00 3.009360050154321176e+00 2.984402970679012057e+00 3.009939718364197603e+00 3.054134837962962923e+00 3.063725405092592613e+00 3.032575231481481559e+00 3.030021219135802468e+00 3.051977237654321051e+00 3.088977141203703702e+00 3.108149594907407387e+00 3.113111496913580023e+00 3.114294463734567753e+00 3.139919463734567984e+00 3.155006751543210086e+00 3.169174382716049454e+00 3.194411168981481808e+00 3.214272280092592471e+00 3.225635609567901074e+00 3.227467206790123555e+00 3.123001543209876552e+00 2.953502121913580414e+00 2.888523341049382687e+00 2.868405189043209624e+00 2.853211805555555536e+00 2.869429012345678931e+00 2.879796006944444375e+00 2.907732445987654568e+00 2.966812789351851887e+00 3.008239293981481488e+00 3.018695023148148415e+00 3.012645158179012128e+00 3.012997202932098606e+00 3.042851080246913753e+00 3.052798996913580254e+00 3.036026234567901216e+00 3.034033564814814898e+00 3.054460841049382758e+00 3.070526138117283921e+00 3.090492862654321105e+00 3.104800829475308888e+00 3.104499421296296191e+00 3.102073206018518547e+00 3.112293595679012537e+00 3.125208815586419497e+00 3.132763310185185279e+00 3.165648630401234342e+00 3.189241415895061937e+00 3.222564621913579952e+00 3.229109278549382456e+00 3.155834780092592329e+00 3.005245949074073941e+00 2.910772569444444624e+00 2.886858121141975264e+00 2.856195987654321033e+00 2.870901331018518743e+00 2.909141107253086389e+00 3.018456790123456912e+00 3.047964891975308621e+00 3.052399691358024914e+00 3.029056230709876729e+00 3.010976080246913433e+00 3.042217881944444535e+00 3.068908661265432158e+00 3.065055459104938151e+00 3.043592785493827169e+00 3.046250482253086478e+00 3.058931809413580449e+00 3.074910300925925544e+00 3.092666859567901216e+00 3.103757233796296422e+00 3.132289737654320838e+00 3.139757426697530551e+00 3.155306712962962834e+00 3.165489004629629566e+00 3.171063850308641907e+00 3.157091049382716008e+00 3.197025945216048992e+00 3.121409143518518281e+00 2.975514564043209909e+00 2.908797260802469253e+00 2.877569444444444624e+00 2.866564911265432336e+00 2.888577835648148184e+00 2.967604166666666377e+00 3.013752893518518494e+00 3.034740547839505975e+00 3.043118248456790464e+00 3.014500868055555394e+00 2.977922453703703898e+00 2.978892264660493616e+00 3.024175829475308497e+00 3.065713734567901305e+00 3.078176601080246932e+00 3.072049575617284312e+00 3.076110146604938311e+00 3.083331886574073977e+00 3.095436921296296440e+00 3.111709104938271686e+00 3.135393036265432087e+00 3.152307581018518601e+00 3.168481867283950759e+00 3.190402681327160650e+00 3.207343267746913806e+00 3.164582368827160153e+00
