2.013546440972222342e+02 2.013452232831790241e+02 2.012721691743827250e+02 2.009574078896604874e+02 2.007380454282407243e+02 2.007916377314814724e+02 2.009552724729938404e+02 2.011836313657407231e+02 2.014467322530864237e+02 2.017111762152777885e+02 2.019865750385802414e+02 2.022468113425925935e+02 2.024784360532407277e+02 2.026920828510802721e+02 2.028913580246913568e+02 2.039773254243827125e+02 2.040402787422839594e+02 2.040894589120370313e+02 2.041531775655864180e+02 2.041685527584876638e+02 2.036435995370370335e+02 2.030945818865740762e+02 2.018457749807098764e+02 2.014885069444444525e+02 2.013728284143518579e+02 2.014055632716049331e+02 2.015474238040123396e+02 2.016453814621913807e+02 2.017705425347222388e+02 2.017899971064814792e+02 2.016834085648148118e+02 2.016201919367283892e+02 2.016247202932098617e+02 2.016875144675925924e+02 2.018164414544753242e+02 2.020333521412037214e+02 2.022393393132715858e+02 2.024705304783950623e+02 2.027066290509259261e+02 2.029208854166666640e+02 2.031534201388888903e+02 2.033913242669753174e+02 2.036020191936728452e+02 2.038220230516975278e+02 2.040549913194444400e+02 2.042831375385802346e+02 2.045145177469135831e+02 2.045956086033950498e+02 2.041643841628086307e+02 2.026625091628086466e+02 2.018667139274691351e+02 2.015606250000000159e+02 2.014356467013888903e+02 2.014223741319444514e+02 2.014863498263889028e+02 2.016298861882715983e+02 2.017147111304012412e+02 2.016733473186728531e+02 2.015597989004629653e+02 2.014900665509259454e+02 2.015127719907407595e+02 2.016370987654321141e+02 2.023358617862654398e+02 2.024008347800925947e+02 2.025476094714506416e+02 2.027235291280864260e+02 2.029114737654321061e+02 2.031016063850308626e+02 2.033051099537036919e+02 2.034966526813271628e+02 2.036869039351851995e+02 2.038852454668209759e+02 2.041105444637345840e+02 2.043581606867283824e+02 2.046413618827160406e+02 2.047441772762345522e+02 2.043386733217592450e+02 2.029504055748456892e+02 2.022297646604938279e+02 2.019748408564814781e+02 2.019425964506172875e+02 2.019794873649691169e+02 2.020923090277777874e+02 2.022345732060184957e+02 2.023495852623456983e+02 2.023553153935185378e+02 2.022976572145061596e+02 2.022760836226851779e+02 2.023403129822530957e+02 2.024764009452160565e+02 2.026722796103395012e+02 2.028975414737654148e+02 2.031404349922839572e+02 2.040487972608024734e+02 2.040739269868827250e+02 2.041142650462963104e+02 2.041663189621913546e+02 2.042499392361111177e+02 2.043485151427469191e+02 2.044806322337963138e+02 2.046393629436728645e+02 2.048237712191358071e+02 2.050069155092592723e+02 2.050956674382715903e+02 2.047372424768518329e+02 2.031595336612654421e+02 2.022061395640432124e+02 2.018034707754629551e+02 2.016292230902777760e+02 2.015628284143518272e+02 2.015843706597222251e+02 2.016416502700617457e+02 2.016319367283950612e+02 2.015146846064814952e+02 2.013233661265432204e+02 2.011955473572530764e+02 2.012041951195987792e+02 2.012981196952160587e+02 2.014338401813271560e+02 2.016055488040123578e+02 2.017552025462962888e+02 2.018983632330246962e+02 2.020331688850308467e+02 2.021535050154321027e+02 2.026903202160494004e+02 2.027260551697530957e+02 2.027151176697530843e+02 2.027262157600308683e+02 2.027959529320987713e+02 2.029110233410494004e+02 2.029930372299382668e+02 2.027106500771604942e+02 2.013961260609567887e+02 2.003303038194444525e+02 1.999755541087963024e+02 1.998329480131172886e+02 1.997913628472222172e+02 1.998318335262345897e+02 1.999474565972222138e+02 2.000560001929012230e+02 2.000446590470679098e+02 1.999658912037037055e+02 1.999243402777777874e+02 1.999805632716049502e+02 2.001162437307098969e+02 2.003121421682099026e+02 2.005273813657407231e+02 2.007682103587962956e+02 2.010268344907407538e+02 2.012738498263888971e+02 2.015088425925925719e+02 2.017371730324074122e+02 2.019347048611111290e+02 2.021318258101852052e+02 2.023429335455246871e+02 2.031027059220679121e+02 2.032255280671296305e+02 2.033573398919753288e+02 2.032659514853395137e+02 2.023788570601851688e+02 2.005049262152777771e+02 1.999745650077160519e+02 1.997922694830246826e+02 1.997187157600308467e+02 1.997408222415123475e+02 1.998897270447531014e+02 2.001009235146605079e+02 2.002314467592592564e+02 2.002564838927468998e+02 2.002349855324073928e+02 2.002743383487654398e+02 2.003859148341049377e+02 2.005624990354938291e+02 2.007885098379629767e+02 2.010363749035493584e+02 2.012981852816357957e+02 2.015267168209876445e+02 2.017135325038580334e+02 2.018861858603395092e+02 2.020478279320987838e+02 2.022253173225308558e+02 2.024274377893518420e+02 2.026506491126543210e+02 2.028864125192901326e+02 2.030556423611110972e+02 2.031015494791666640e+02 2.022371209490740966e+02 2.016721754436728418e+02 2.007748722029321016e+02 2.005075057870370472e+02 2.004413946759259204e+02 2.004945871913580220e+02 2.006405391589506166e+02 2.008335382908950635e+02 2.009031978202160360e+02 2.008189607445987690e+02 2.007687798996913671e+02 2.008179152199074053e+02 2.009622902199074019e+02 2.011693793402777715e+02 2.014156766010802357e+02 2.016389650848765598e+02 2.018543306327160565e+02 2.020513001543209839e+02 2.022169757908950771e+02 2.024082831790123578e+02 2.026081799768518579e+02 2.028228853202160451e+02 2.030930049189814781e+02 2.033617409336419826e+02 2.034005203510802460e+02 2.030219979745370438e+02 2.020636111111111290e+02 2.014351519097222081e+02 2.011621971450617252e+02 2.010801904899691408e+02 2.012327006172839674e+02 2.013728959297839367e+02 2.015157388117283972e+02 2.015651962770061800e+02 2.015169106867284086e+02 2.014434273726851643e+02 2.014180116705246917e+02 2.014689390432098719e+02 2.015989882330246985e+02 2.017923808834876525e+02 2.020405430169753060e+02 2.022980748456790252e+02 2.025559066358024722e+02 2.027750925925925856e+02 2.029814424189814872e+02 2.031933420138888948e+02 2.033777367862654160e+02 2.034827305169753231e+02 2.032159577546296418e+02 2.020074855324074008e+02 2.005850583526234345e+02 2.002276422646604885e+02 2.000530299961419871e+02 2.000016116898148084e+02 2.000174315200617343e+02 2.001431259645061687e+02 2.002930970293209896e+02 2.003270047260802471e+02 2.002697183641975300e+02 2.002339506172839378e+02 2.002726620370370370e+02 2.007518460648147993e+02 2.008780627893518442e+02 2.010453530092592587e+02 2.012516030092592700e+02 2.014725969328703741e+02 2.017095775462962877e+02 2.019193537808641850e+02 2.021352174961419621e+02 2.023643605324074031e+02 2.025477536651234516e+02 2.023953795331790104e+02 2.014237533757716108e+02 1.997941782407407345e+02 1.992859384645061596e+02 1.990661048418209873e+02 1.989691063850308694e+02 1.989086892361111154e+02 1.989139988425925765e+02 1.990112562692901292e+02 1.990951933834876684e+02 1.991065986689814622e+02 1.990985098379629505e+02 1.991414231288580083e+02 1.992408839699074008e+02 1.994157339891975198e+02 1.996403525270061721e+02 1.999280531442901179e+02 2.002297834683641895e+02 2.005148090277777726e+02 2.007616276041666481e+02 2.009766960841049297e+02 2.017018913966049354e+02 2.018072776813271503e+02 2.019578780864197540e+02 2.021150178433641997e+02 2.020538840663580231e+02 2.013366811342592655e+02 1.994436535493827307e+02 1.985881486304012356e+02 1.984802941743827205e+02 1.984218557098765245e+02 1.984131360918210021e+02 1.985034312307098787e+02 1.986174175347222217e+02 1.986720534336419917e+02 1.986929933449073928e+02 1.987512254050925833e+02 1.988953004436728236e+02 1.990971272183641929e+02 1.993453293788580254e+02 1.996333265817901292e+02 1.999220543981481626e+02 2.002138802083333360e+02 2.005116748649691374e+02 2.007872072723765484e+02 2.010596874999999955e+02 2.013284355709876650e+02 2.015820047260802426e+02 2.018263874421296293e+02 2.020909466628086193e+02 2.023770650077160269e+02 2.032467168209876434e+02 2.033782807677469293e+02 2.034837466242283881e+02 2.032218311149691488e+02 2.017375178433641736e+02 2.002443272569444446e+02 1.999327522183642145e+02 1.998098341049382611e+02 1.997643875385802517e+02 1.997131206597222217e+02 1.997304378858024734e+02 1.998415991512345897e+02 1.999207687114197540e+02 1.999092910879629414e+02 1.998924787808641952e+02 1.999390268132715960e+02 2.000507812500000000e+02 2.002363411458333360e+02 2.004468581211419860e+02 2.006945760995370449e+02 2.009444613233024484e+02 2.011855738811728429e+02 2.014036540316357957e+02 2.016208087384259500e+02 2.018427001350308672e+02 2.020518938078703854e+02 2.022771281828703707e+02 2.025087070794753288e+02 2.027370828510802312e+02 2.030006153549382759e+02 2.032607638888889028e+02 2.037155632716049354e+02 2.033231669560185253e+02 2.014236694637345693e+02 2.004721016589506064e+02 2.001212929205246951e+02 1.999386993634259397e+02 1.998746455439814724e+02 1.998491560570987531e+02 1.999185672260802562e+02 2.000148664158950567e+02 2.000364592978395137e+02 1.999794121334876422e+02 1.999550896990740796e+02 2.000030671296296418e+02 2.001377329282407231e+02 2.003192520254629585e+02 2.005510778356481580e+02 2.007916319444444468e+02 2.010384842785493902e+02 2.012928091242283983e+02 2.015203395061728600e+02 2.017285059799382907e+02 2.019502826003086398e+02 2.021861125578703593e+02 2.024148095100308637e+02 2.026615108989197438e+02 2.029235802469135876e+02 2.031998967978395001e+02 2.034814790702160678e+02 2.037164313271604783e+02 2.036160932677469191e+02 2.019449305555555441e+02 2.010031206597222138e+02 2.002583169367283915e+02 1.999295934606481353e+02 1.997488980516975516e+02 1.995738749035493811e+02 1.994384886188271651e+02 1.994825872878086557e+02 1.994967934992284029e+02 1.995003496334876445e+02 1.995411096643518647e+02 1.996507629243826898e+02 1.998246682098765348e+02 2.000577898341049377e+02 2.003059500385802494e+02 2.005883082561728372e+02 2.008645380015432238e+02 2.011197294560185185e+02 2.013536337770061664e+02 2.015784413580246905e+02 2.018408651620370335e+02 2.021082552083333326e+02 2.023958641975308694e+02 2.026887813464506110e+02 2.029625453317901247e+02 2.032191136188271514e+02 2.034783415316358059e+02 2.037584239969135922e+02 2.040277049575617241e+02 2.040826331018518545e+02 2.029202430555555452e+02 2.016684481095678905e+02 2.005159606481481376e+02 2.001200573881172886e+02 1.999464848572530968e+02 1.998230362654321084e+02 1.996874373070987474e+02 1.996719376929012526e+02 1.997378139467592462e+02 1.997921711033950771e+02 1.998031847993827057e+02 1.998033849344135717e+02 1.998655917245370404e+02 1.999967824074074088e+02 2.001951514274691419e+02 2.004482479745370540e+02 2.007348471257716085e+02 2.010473143325617400e+02 2.013410141782407550e+02 2.016186892361111234e+02 2.018813430748456881e+02 2.021074681712962899e+02 2.023543209876543187e+02 2.026326340663580083e+02 2.029177126736111347e+02 2.032011882716049342e+02 2.034634862075617150e+02 2.037374127121913716e+02 2.040107200038580402e+02 2.042962567515432113e+02 2.045380951003086238e+02 2.042955970293209873e+02 2.031215673225308649e+02 2.011844574652777737e+02 2.008008617862654148e+02 2.006411144868827137e+02 2.006055203510802301e+02 2.005782142168209816e+02 2.006090904706790354e+02 2.006875390624999795e+02 2.007282364004629471e+02 2.006767611882715983e+02 2.006047019675926038e+02 2.005844266010802528e+02 2.006549382716049479e+02 2.008138816550925867e+02 2.010398804012345693e+02 2.012996180555555554e+02 2.015569680748456847e+02 2.018117785493827228e+02 2.020340398341049593e+02 2.022591386959876445e+02 2.024836168981481421e+02 2.026985628858024597e+02 2.029344319058641872e+02 2.031930878665123430e+02 2.034446773726851916e+02 2.036990750385802471e+02 2.039573032407407425e+02 2.042314380787036896e+02 2.045004050925925867e+02 2.044773090277777783e+02 2.030443523341049286e+02 2.020231524884259500e+02 2.009878935185185185e+02 2.007067163387345659e+02 2.006151335841049388e+02 2.006017824074073985e+02 2.007637152777777771e+02 2.008651017554012412e+02 2.008813676697530752e+02 2.008197391010802448e+02 2.007897270447530786e+02 2.008505179398148357e+02 2.009982036072530889e+02 2.011982937885802301e+02 2.014331954089506098e+02 2.017015842013888971e+02 2.019692573302469043e+02 2.022375154320987747e+02 2.024875983796296453e+02 2.026915658757716017e+02 2.028842766203703718e+02 2.031114506172839640e+02 2.033542230902777703e+02 2.035955545910493640e+02 2.038537750771604919e+02 2.041141116898148198e+02 2.043913753858024904e+02 2.046825371334876422e+02 2.047785889274691442e+02 2.042974792631173102e+02 2.019323490547839413e+02 2.014724758873456665e+02 2.010490393518518601e+02 2.007706032986110927e+02 2.006049744405864317e+02 2.004704841820987724e+02 2.004261964699074099e+02 2.004666710069444662e+02 2.004812229938271457e+02 2.004278645833333314e+02 2.003741010802469305e+02 2.003747950424382793e+02 2.004723553240740728e+02 2.006288855131172681e+02 2.008517645640432079e+02 2.010768725887345738e+02 2.012977676504629585e+02 2.015399932484567955e+02 2.017859114583333167e+02 2.020147651427469100e+02 2.022368547453703798e+02 2.024787659143518681e+02 2.027467766203703547e+02 2.030120336612654341e+02 2.032846937692901292e+02 2.035605285493826955e+02 2.038293865740740500e+02 2.040946817129629665e+02 2.043593465470679007e+02 2.045293856095678962e+02 2.042085980902777749e+02 2.019964501350308694e+02 2.011908217592592507e+02 2.006024575617284142e+02 2.003380015432098560e+02 2.001863922646604976e+02 2.000563994984568126e+02 1.999783386381172932e+02 2.000132749807098662e+02 2.000709736689814804e+02 2.000842877121913546e+02 2.000774310378086511e+02 2.000985305748456824e+02 2.002062186535493993e+02 2.004220423418209975e+02 2.007161675347222172e+02 2.010299522569444548e+02 2.013576258680555497e+02 2.017015562307098833e+02 2.020178264853394978e+02 2.023032740162037157e+02 2.025791020447530855e+02 2.028305314429012469e+02 2.031122665895061914e+02 2.033797492283950703e+02 2.036294241898148130e+02 2.038922694830246769e+02 2.041730782214505950e+02 2.044656206597222194e+02 2.047656630979938086e+02 2.049920794753086284e+02 2.047880545910493879e+02 2.028164009452160315e+02 2.019882065007716108e+02 2.013048273533950407e+02 2.010083637152777669e+02 2.008971860532407447e+02 2.008966541280863964e+02 2.009974252507716130e+02 2.010394420331790002e+02 2.009842973572530695e+02 2.009026133294753151e+02 2.008791927083333348e+02 2.009346465084876741e+02 2.010779002700617184e+02 2.012948943865740716e+02 2.015354021990740705e+02 2.018132831790123305e+02 2.020641787229938302e+02 2.022938835841049183e+02 2.024911834490740716e+02 2.026869029706790002e+02 2.028876003086419928e+02 2.030877445023148198e+02 2.032887890625000011e+02 2.034908858989197427e+02 2.037120645254629778e+02 2.039595138888888926e+02 2.042035498649691476e+02 2.042342327353395035e+02 2.036351601080247065e+02 2.014077049575617195e+02 2.001520119598765461e+02 2.000928853202160269e+02 2.000395032793209964e+02 2.000424918016975369e+02 2.000913599537037157e+02 2.002003862847222138e+02 2.002951798804012356e+02 2.002669738618826898e+02 2.001686265432098821e+02 2.001038252314814940e+02 2.001047400655864124e+02 2.002063855131172829e+02 2.003971132330246974e+02 2.006177541473765302e+02 2.008823109567901213e+02 2.011467539544753151e+02 2.014189674961419598e+02 2.016576316550925867e+02 2.018801075424382816e+02 2.021003838734567921e+02 2.023113040123456869e+02 2.025171981095678859e+02 2.027318822337962843e+02 2.029749831211419746e+02 2.032454214891975255e+02 2.035149850501543369e+02 2.037215678047839731e+02 2.034897632137345624e+02 2.018562847222222274e+02 1.999019849537037032e+02 1.993861578896604954e+02 1.989058333333333337e+02 1.989314409722222194e+02 1.988748254243827205e+02 1.988301287615740875e+02 1.988622458526234595e+02 1.989021585648148118e+02 1.988711887538580072e+02 1.988137987075617445e+02 1.988035845871913807e+02 1.988757913773148118e+02 1.990153240740740728e+02 1.992244005594135672e+02 1.994793253279320879e+02 1.997652768132716119e+02 2.000643065200617343e+02 2.003299199459876547e+02 2.006011998456790195e+02 2.008513329475308637e+02 2.010977560763888903e+02 2.013370939429012481e+02 2.015997318672839640e+02 2.018721730324074031e+02 2.021398321759259034e+02 2.024082720871913637e+02 2.027010112847222274e+02 2.029647651427468986e+02 2.029300458140432113e+02 2.020051986882716051e+02 1.998513609182098776e+02 1.990008333333333326e+02 1.987096609760802721e+02 1.983892799961419655e+02 1.983827787422839322e+02 1.983227049575617400e+02 1.983477633101852007e+02 1.984729383680555657e+02 1.984608463541666481e+02 1.984688102816357969e+02 1.985359572723765496e+02 1.986827859760802255e+02 1.989017134452160462e+02 1.991737008101851814e+02 1.994773244598765416e+02 1.998083376736111347e+02 2.001234765625000023e+02 2.003960951967592621e+02 2.006535980902777681e+02 2.009029523533950510e+02 2.011414771412037226e+02 2.014002864583333405e+02 2.016473075810185378e+02 2.019051210455246803e+02 2.021630401234567955e+02 2.024500641396604976e+02 2.027332826967592609e+02 2.029259717399691283e+02 2.026585551697531002e+02 2.011104340277777567e+02 1.994684997106481319e+02 1.989814959490740875e+02 1.987786168981481580e+02 1.986384524498456869e+02 1.986638821373456665e+02 1.987196600115740921e+02 1.988201215277777862e+02 1.988620862268518579e+02 1.988058892746913671e+02 1.987332489390431931e+02 1.987107556905864101e+02 1.987705184220678802e+02 1.989253288966049240e+02 1.991441261574074133e+02 1.993954923804012367e+02 1.996495871913580231e+02 1.998964732831790059e+02 2.001138874421296237e+02 2.003030893132716130e+02 2.004927430555555645e+02 2.006839361496913625e+02 2.008635368441357798e+02 2.010757084297839583e+02 2.012880791859567751e+02 2.015298413387345704e+02 2.018152840470679052e+02 2.020578091242284131e+02 2.019524011381172954e+02 2.010235440779321152e+02 1.991091218171296191e+02 1.984980555555555384e+02 1.982478964120370222e+02 1.981494299768518488e+02 1.981322723765431988e+02 1.983769164737654478e+02 1.984674879436728645e+02 1.984763758680555554e+02 1.983819536072530809e+02 1.982591435185185276e+02 1.982116845100308637e+02 1.982629513888888653e+02 1.984053115354938086e+02 1.986283193479938234e+02 1.988731105324074235e+02 1.991560831404320879e+02 1.994278694058642145e+02 1.996773220486111029e+02 1.998930463927469248e+02 2.001039332561728372e+02 2.002926721643518420e+02 2.004873278356481308e+02 2.006818508873456892e+02 2.008853486689814929e+02 2.011112823109567955e+02 2.013579576581790036e+02 2.015886279899691260e+02 2.014733029513888880e+02 2.003944762731481433e+02 1.982435460069444559e+02 1.975735402199074144e+02 1.973110054976851870e+02 1.971844979745370381e+02 1.970801726466049502e+02 1.970185614390432249e+02 1.970694073109567910e+02 1.973852893518518385e+02 1.974032074652777737e+02 1.973470158179012230e+02 1.973790007716049502e+02 1.975249368248456676e+02 1.977310985725308683e+02 1.979911665702160519e+02 1.982476827739197631e+02 1.985478071952160519e+02 1.988263700810184957e+02 1.990881616512345431e+02 1.993478756751543131e+02 1.996149594907407447e+02 1.998869680748456688e+02 2.001501523919752970e+02 2.004176249035493811e+02 2.007226755401234755e+02 2.010308386381172738e+02 2.013548890817901338e+02 2.015463782793209759e+02 2.012212210648148130e+02 1.995152102623456756e+02 1.979353607253086409e+02 1.975654258294752879e+02 1.973738710455246803e+02 1.972771363811728236e+02 1.971713966049382805e+02 1.971450641396604908e+02 1.972072661072530764e+02 1.972950496720679041e+02 1.974213358410493697e+02 1.974451065779321084e+02 1.974834775270061868e+02 1.976007643711419917e+02 1.977787779706790161e+02 1.980415354938271548e+02 1.983430709876543290e+02 1.987102285879629733e+02 1.991065277777777567e+02 1.994401239390432181e+02 1.996976147762345590e+02 1.999281307870370483e+02 2.001417722800925958e+02 2.003701282793209941e+02 2.006171542245370176e+02 2.008910585455246860e+02 2.011576345486110995e+02 2.014528033371913693e+02 2.017857296489197552e+02 2.020270105131172897e+02 2.018540224729938188e+02 2.007290190972222206e+02 1.990246773726851757e+02 1.985604267939814633e+02 1.983472067901234652e+02 1.982509775270061709e+02 1.981898302469135729e+02 1.981840605709876684e+02 1.982734563078703900e+02 1.983215403163580390e+02 1.982662437307099026e+02 1.980170886381172863e+02 1.980572275270061766e+02 1.981159519675925935e+02 1.982429518711419973e+02 1.984302922453703673e+02 1.986761704282407379e+02 1.989661058063271355e+02 1.992660093557098833e+02 1.995064742476851904e+02 1.997168147183641906e+02 1.999034500385802460e+02 2.000940436921296453e+02 2.003128559027777840e+02 2.005616628086419553e+02 2.008066295331790059e+02 2.010448133680555429e+02 2.013026239390432295e+02 2.015253361304012287e+02 2.013339617091049547e+02 2.002314211998456983e+02 1.986593499228395103e+02 1.982255155285493800e+02 1.980116994598765245e+02 1.979234799382716119e+02 1.979238922646605090e+02 1.980296402391975050e+02 1.981872511574074167e+02 1.982566343557098776e+02 1.982295992476852007e+02 1.982041647376543381e+02 1.982479224537037226e+02 1.987133767361111154e+02 1.988723644868827307e+02 1.990904017168209919e+02 1.996043547453703582e+02 1.998443928433642043e+02 2.000811516203703491e+02 2.003032629243827216e+02 2.005037418016975153e+02 2.007052970679012276e+02 2.008949787808641929e+02 2.011125260416666833e+02 2.013600569058641838e+02 2.016450144675926026e+02 2.018569888117283995e+02 2.016728993055555748e+02 2.004120187114197336e+02 1.985430777391975425e+02 1.981304046103394967e+02 1.979287707368827114e+02 1.978186781442901179e+02 1.977196884645061914e+02 1.976736086998456869e+02 1.977290788966049320e+02 1.977890923996913557e+02 1.978001818094135729e+02 1.977591748649691397e+02 1.977839520640432340e+02 1.978885455246913807e+02 1.980574619020061959e+02 1.982881987847222263e+02 1.991330613425925833e+02 1.992584659529320845e+02 1.994275352044753049e+02 1.996128838734567807e+02 1.998077044753086398e+02 2.000257682291666583e+02 2.002184133873456631e+02 2.004322101658950714e+02 2.006685402199074133e+02 2.009413975694444616e+02 2.012437577160493731e+02 2.015632966820987519e+02 2.017968320794753083e+02 2.015623736496913807e+02 2.002095066550925822e+02 1.987941005979938041e+02 1.983700921103395274e+02 1.982043745177469134e+02 1.981344198495370392e+02 1.980610112847222126e+02 1.980421132330247076e+02 1.981209963348765655e+02 1.982234606481481478e+02 1.982789790702160531e+02 1.983151311728395001e+02 1.983979349922839504e+02 1.985696807484567898e+02 1.987925998263888800e+02 1.990932634066357991e+02 1.994353047839506416e+02 1.997864819637345590e+02 2.007291034915123475e+02 2.008570862268518624e+02 2.010080531442901304e+02 2.012143402777777794e+02 2.014975950038580379e+02
4.430114776234567842e+01 4.431034336419752862e+01 4.434432725694444599e+01 4.440925202546296191e+01 4.442689091435185134e+01 4.457151138117284006e+01 4.479938464506172835e+01 4.509950038580247167e+01 4.540994791666666686e+01 4.572780767746913710e+01 4.604219618055555685e+01 4.635476128472222257e+01 4.664596113040123981e+01 4.689284095293209731e+01 4.715568817515431732e+01 4.911688560956790184e+01 4.922560522762346125e+01 4.915644531249999716e+01 4.898456356095678643e+01 4.872094859182099214e+01 4.770056134259259295e+01 4.740407455632715994e+01 4.629817418981480870e+01 4.577451822916666657e+01 4.558064284336419547e+01 4.560955584490740478e+01 4.579271267361110631e+01 4.580479793595679183e+01 4.590193190586419547e+01 4.590583767361111001e+01 4.577540798611111228e+01 4.525116657021604993e+01 4.527552565586420030e+01 4.538409625771605249e+01 4.562955150462963161e+01 4.592724971064814810e+01 4.623813898533950351e+01 4.654190538194444571e+01 4.683802854938271309e+01 4.711584056712963076e+01 4.740109712577160650e+01 4.768818045910493453e+01 4.795706645447530292e+01 4.822627121913580339e+01 4.850847415123456585e+01 4.879324315200617690e+01 4.909535252700617036e+01 4.924110773533950436e+01 4.877668451003086147e+01 4.704226466049382793e+01 4.601598620756173119e+01 4.552278067129629591e+01 4.530777343749999631e+01 4.522722318672839492e+01 4.526214072145061351e+01 4.538988329475309058e+01 4.548772521219136422e+01 4.543579668209876132e+01 4.530551697530864175e+01 4.523899932484567898e+01 4.526377700617283750e+01 4.540284866898147698e+01 4.601174527391975744e+01 4.611435715663580481e+01 4.632724874614196864e+01 4.658198157793210470e+01 4.683502555941358025e+01 4.708783902391974863e+01 4.733740933641975346e+01 4.756982301311727923e+01 4.780585069444444457e+01 4.805491512345679439e+01 4.832535542052469424e+01 4.862641348379629846e+01 4.896305169753086517e+01 4.912844955632715482e+01 4.869210165895061948e+01 4.717445119598765757e+01 4.622450761959876786e+01 4.581140335648148465e+01 4.569555073302469594e+01 4.570150993441357912e+01 4.579025655864197120e+01 4.594840952932099043e+01 4.606571711033950578e+01 4.606734760802469708e+01 4.600575569058641889e+01 4.597896460262345641e+01 4.604217930169753004e+01 4.619926793981481694e+01 4.641298562885803136e+01 4.669709442515431874e+01 4.698558883101851791e+01 4.803884211033950180e+01 4.808603539737654131e+01 4.818321662808642003e+01 4.827933979552469168e+01 4.839806278935185446e+01 4.854666425540123242e+01 4.871710551697530889e+01 4.892091290509259238e+01 4.915319251543209589e+01 4.941463204089506434e+01 4.956014467592592609e+01 4.918258101851851904e+01 4.751882860725308433e+01 4.619155189043210186e+01 4.559067033179012185e+01 4.532624421296296191e+01 4.520361834490741160e+01 4.518969184027777430e+01 4.524051215277778226e+01 4.525018856095678643e+01 4.515106143904321101e+01 4.496099681712963303e+01 4.480988040123456528e+01 4.480515817901234499e+01 4.489710841049382850e+01 4.504446759259259636e+01 4.523088831018518619e+01 4.539154176311728150e+01 4.556106915509259636e+01 4.571795862268518107e+01 4.586800250771604937e+01 4.647870129243827364e+01 4.652529031635803136e+01 4.655999710648148238e+01 4.659805652006172494e+01 4.670581741898148209e+01 4.684661120756172892e+01 4.696760657793210214e+01 4.667908323688271821e+01 4.529104214891975744e+01 4.397096884645061721e+01 4.346527681327160053e+01 4.325818479938271821e+01 4.318409866898147698e+01 4.321331838348766041e+01 4.333905671296296447e+01 4.344800057870369869e+01 4.344021942515432499e+01 4.334026765046296248e+01 4.327959683641975630e+01 4.331413773148148749e+01 4.343921055169753487e+01 4.363826003086419547e+01 4.385941550925925725e+01 4.411476321373456244e+01 4.440195650077160394e+01 4.466300154320987303e+01 4.492000385802469253e+01 4.517032600308641577e+01 4.539490547839506007e+01 4.559809461805555486e+01 4.583672887731481893e+01 4.673246093750000085e+01 4.688921633873457040e+01 4.706881269290123981e+01 4.698326774691358310e+01 4.604793065200617264e+01 4.390676167052469481e+01 4.318203510802469225e+01 4.287294511959876786e+01 4.275077739197531201e+01 4.275580584490740677e+01 4.289982445987654103e+01 4.311379002700616780e+01 4.325993489583333940e+01 4.327725115740740591e+01 4.325861062885802255e+01 4.327653983410493765e+01 4.338978925540123299e+01 4.357168885030863947e+01 4.381791473765431988e+01 4.410354504243827023e+01 4.439550636574073650e+01 4.464864631558641861e+01 4.486966483410493822e+01 4.506779320987654103e+01 4.526242766203703383e+01 4.548531828703703894e+01 4.574007330246913483e+01 4.600420138888888744e+01 4.628594859182098986e+01 4.650309558256172693e+01 4.658890190972221745e+01 4.564458863811728406e+01 4.491598861882715710e+01 4.393741753472222200e+01 4.356452449845678387e+01 4.346787181712962678e+01 4.350459780092592155e+01 4.365883535879629562e+01 4.386675974151233959e+01 4.396331548996913341e+01 4.388139371141974721e+01 4.382328173225308632e+01 4.386442467206789786e+01 4.401797935956790297e+01 4.424833863811728207e+01 4.450437934027777942e+01 4.475042775848766041e+01 4.499014564043209674e+01 4.521354407793209873e+01 4.542595341435185219e+01 4.564631124614197688e+01 4.588249903549382935e+01 4.613315200617284262e+01 4.644694782021604595e+01 4.677207561728395291e+01 4.685165557484567245e+01 4.642563175154320732e+01 4.537604504243827108e+01 4.462002941743826767e+01 4.427578800154321215e+01 4.415773533950616780e+01 4.403302372685185162e+01 4.423538966049382992e+01 4.444094039351851677e+01 4.452923369984567614e+01 4.449703269675925554e+01 4.442048852237654444e+01 4.439113956404321470e+01 4.444265094521604453e+01 4.459939236111111427e+01 4.483005787037037493e+01 4.510860339506172778e+01 4.541264226466049791e+01 4.571808883101851251e+01 4.600395013503086261e+01 4.624866657021605221e+01 4.649630545910493851e+01 4.673853443287037379e+01 4.688164448302469367e+01 4.660854841820987815e+01 4.527217833719136308e+01 4.372480468749999716e+01 4.319085551697530434e+01 4.294874421296296418e+01 4.286208622685185077e+01 4.286462143132715852e+01 4.298426697530864260e+01 4.314377604166666202e+01 4.319242332175925725e+01 4.312604600694444201e+01 4.307336564429012071e+01 4.311030574845679553e+01 4.348817997685185333e+01 4.365643952546296447e+01 4.388573109567901298e+01 4.413499469521605079e+01 4.439501494984567387e+01 4.465773485725308944e+01 4.490658371913580282e+01 4.515556857638888744e+01 4.542822530864197006e+01 4.564591869212962649e+01 4.550198881172839549e+01 4.447516589506172835e+01 4.266563560956790013e+01 4.203325906635802767e+01 4.174299768518518761e+01 4.161437451774691709e+01 4.154656442901234215e+01 4.153289882330246741e+01 4.162012731481481609e+01 4.170547935956790297e+01 4.172194155092592638e+01 4.170880787037036441e+01 4.174565297067901071e+01 4.185176938657406964e+01 4.203415461033950606e+01 4.228959538966049791e+01 4.258520061728395234e+01 4.290422260802468912e+01 4.321701099537036583e+01 4.349101996527777203e+01 4.373243971836419774e+01 4.451915702160493993e+01 4.466593364197530747e+01 4.486639949845678643e+01 4.504855420524691567e+01 4.500448495370370239e+01 4.424412808641974948e+01 4.222594087577160593e+01 4.118015866126543756e+01 4.103541232638889369e+01 4.095304349922839293e+01 4.093440923996913483e+01 4.101099778163580112e+01 4.112632378472222427e+01 4.119119598765432499e+01 4.121519820601852047e+01 4.127538001543209845e+01 4.140573736496914137e+01 4.161219184027778084e+01 4.187801504629629790e+01 4.218258150077160451e+01 4.249575183256173005e+01 4.281362654320987815e+01 4.313216869212963189e+01 4.344246817129629790e+01 4.373569782021604624e+01 4.403042775848765444e+01 4.431922935956789900e+01 4.460001302083333030e+01 4.490614101080247167e+01 4.523515190972222655e+01 4.632848958333333655e+01 4.648398678626543301e+01 4.663596547067901099e+01 4.639043836805555543e+01 4.478317418981481524e+01 4.312930603780863947e+01 4.264300250771605505e+01 4.244409336419753487e+01 4.235679687500000057e+01 4.227781539351852302e+01 4.228852671682098929e+01 4.238207851080246513e+01 4.246196759259259323e+01 4.245373263888888715e+01 4.244851948302468969e+01 4.248890046296295964e+01 4.260801167052468941e+01 4.280392312885802397e+01 4.304056471836420172e+01 4.330530864197530860e+01 4.358671971450617377e+01 4.385761574074074076e+01 4.410204234182098304e+01 4.435655092592592297e+01 4.460467255015431931e+01 4.484851466049382651e+01 4.509896508487654643e+01 4.535581018518518448e+01 4.563341917438271622e+01 4.594599247685184906e+01 4.626524546682098560e+01 4.694966242283950209e+01 4.650198929398148096e+01 4.442094135802469168e+01 4.325698977623456898e+01 4.275304639274691709e+01 4.251232542438271622e+01 4.241883150077160280e+01 4.238682291666666657e+01 4.244180410879629761e+01 4.254229311342592013e+01 4.256453896604937626e+01 4.250883825231481694e+01 4.248153308256173233e+01 4.253297453703704178e+01 4.266591386959876786e+01 4.286656539351852047e+01 4.311749855324074332e+01 4.337979793595678757e+01 4.366160686728395035e+01 4.393112364969135797e+01 4.417660204475308916e+01 4.443230613425925668e+01 4.468270447530863976e+01 4.494430893132715710e+01 4.520726996527777430e+01 4.550536651234567387e+01 4.579949893904321101e+01 4.612814284336419490e+01 4.644821277006172977e+01 4.673404996141974976e+01 4.667444106867284148e+01 4.468234085648148124e+01 4.364190200617284177e+01 4.273107060185185446e+01 4.233407118055555429e+01 4.213654658564814781e+01 4.195079427083333456e+01 4.180897424768518533e+01 4.185130256558641548e+01 4.188401909722222172e+01 4.189184992283950493e+01 4.192557918595678501e+01 4.203677517361111171e+01 4.221823109567900900e+01 4.246362220293210044e+01 4.272933641975308916e+01 4.302696855709876900e+01 4.332411940586419519e+01 4.360700858410493197e+01 4.386826147762345585e+01 4.412760995370370409e+01 4.439888840663579828e+01 4.470604311342592752e+01 4.501452112268518846e+01 4.534101369598765530e+01 4.565462866512345386e+01 4.597434461805556083e+01 4.629387393904321613e+01 4.663168643904320732e+01 4.697328655478395376e+01 4.708112461419753458e+01 4.575457995756173091e+01 4.433835599922839066e+01 4.298661747685185475e+01 4.249575665509259181e+01 4.227287567515431732e+01 4.213521894290123981e+01 4.200567370756172636e+01 4.198674141589506803e+01 4.206356192129629790e+01 4.213644097222221774e+01 4.214041666666666686e+01 4.214913869598765928e+01 4.221560185185185077e+01 4.235161603009259323e+01 4.256660300925926066e+01 4.284288821373456813e+01 4.315326919367284120e+01 4.348312934027777743e+01 4.381466194058641861e+01 4.412336226851851251e+01 4.441295090663579970e+01 4.467907889660493481e+01 4.495657986111110915e+01 4.527879388503086489e+01 4.562349054783950209e+01 4.594368537808642117e+01 4.627200520833333286e+01 4.660979938271605505e+01 4.694321373456789814e+01 4.729402440200617264e+01 4.760972318672839521e+01 4.747855565200617178e+01 4.625757378472222570e+01 4.402209780092592695e+01 4.339154224537036697e+01 4.314063319830247423e+01 4.306888020833333286e+01 4.305591338734568296e+01 4.307403645833333172e+01 4.316171248070988042e+01 4.322105661651234243e+01 4.318174623842592297e+01 4.311587336033950635e+01 4.310824074074074019e+01 4.318978491512345386e+01 4.336634259259259494e+01 4.360074845679012157e+01 4.387547743055555571e+01 4.417432484567901696e+01 4.447239872685185702e+01 4.473650125385802312e+01 4.500449122299382054e+01 4.526542004243827222e+01 4.553117573302468912e+01 4.581441599151234101e+01 4.612186197916666686e+01 4.642232735339506178e+01 4.673343846450617178e+01 4.705862943672839549e+01 4.738942708333333798e+01 4.771471209490740506e+01 4.774469859182099185e+01 4.611713204089505780e+01 4.494519000771605022e+01 4.375490451388888857e+01 4.335734374999999829e+01 4.323742283950617349e+01 4.322510561342592439e+01 4.341537953317901355e+01 4.352777777777777857e+01 4.355200183256172863e+01 4.350293836805555969e+01 4.347498987268518533e+01 4.354335841049382338e+01 4.370669801311728264e+01 4.392859809027778084e+01 4.419267795138888744e+01 4.449426118827160792e+01 4.480059944058641719e+01 4.511297598379629648e+01 4.539362895447531088e+01 4.564841531635802596e+01 4.588641348379629648e+01 4.615903790509259608e+01 4.643959924768518732e+01 4.672672839506172693e+01 4.704931761188272077e+01 4.736532214506173233e+01 4.770273967978395291e+01 4.807271363811728548e+01 4.821733121141974721e+01 4.768712480709876900e+01 4.470864824459876274e+01 4.416121093750000171e+01 4.366558159722222143e+01 4.338436824845678785e+01 4.323017312885802710e+01 4.311414834104937910e+01 4.309278260030863805e+01 4.315526089891974948e+01 4.319956886574074417e+01 4.315742235725308262e+01 4.310939332561728321e+01 4.313314959490740819e+01 4.323564814814815094e+01 4.340986738040123072e+01 4.365247781635802227e+01 4.392122636959876303e+01 4.417961419753086005e+01 4.444639419367283750e+01 4.473037663966049138e+01 4.499631944444444542e+01 4.525714602623456528e+01 4.553565586419752975e+01 4.583510802469135825e+01 4.616558738425926123e+01 4.650278404706789814e+01 4.684122058256172494e+01 4.716581597222222655e+01 4.749983603395061493e+01 4.785071421682098958e+01 4.807679928626543386e+01 4.776716242283950464e+01 4.506158709490740932e+01 4.416979745370370125e+01 4.348197916666666885e+01 4.319533902391975744e+01 4.303684944058641548e+01 4.290566888503086318e+01 4.284384500385802852e+01 4.287927662037036924e+01 4.295616222993827193e+01 4.297363281250000000e+01 4.297111834490740989e+01 4.299523485725308802e+01 4.311186535493827421e+01 4.331992862654320930e+01 4.362863040123456670e+01 4.397028790509259011e+01 4.433546103395062232e+01 4.471020158179012327e+01 4.507021170910493879e+01 4.539869646990740648e+01 4.570007523148148465e+01 4.600577980324074190e+01 4.632967158564814980e+01 4.664243730709876701e+01 4.694899450231481808e+01 4.726836516203703553e+01 4.760638840663580851e+01 4.799145109953703781e+01 4.836952112268518533e+01 4.866893663194444031e+01 4.849271026234568183e+01 4.611628616898148181e+01 4.515352092978395149e+01 4.436638792438271395e+01 4.401409191743827165e+01 4.388382330246913909e+01 4.389884741512345556e+01 4.402015287422839407e+01 4.408784239969135399e+01 4.404926118827160053e+01 4.397620949074074304e+01 4.395271219135802454e+01 4.402484278549382424e+01 4.417334249614197006e+01 4.441549720293209447e+01 4.468305314429012043e+01 4.498980468749999773e+01 4.527432773919753117e+01 4.553912085262345499e+01 4.579352237654320845e+01 4.602286072530863947e+01 4.626388117283951118e+01 4.650671923225308291e+01 4.676501832561728378e+01 4.702334876543209674e+01 4.728996045524691993e+01 4.760701003086419547e+01 4.792705777391975630e+01 4.801419126157406936e+01 4.737818287037037379e+01 4.501836805555555543e+01 4.310157600308641435e+01 4.303813946759259323e+01 4.300020206404321499e+01 4.303591531635802880e+01 4.312111786265431590e+01 4.327418595679012725e+01 4.339892650462962820e+01 4.340019145447531201e+01 4.332255690586419661e+01 4.325867717978395177e+01 4.327297887731481296e+01 4.339698640046296418e+01 4.360403597608024739e+01 4.386358314043209816e+01 4.417207224151234612e+01 4.448529417438271594e+01 4.479106481481481694e+01 4.507808063271604482e+01 4.534846788194444400e+01 4.560695216049382594e+01 4.584976273148148351e+01 4.609995322145061891e+01 4.635508246527777487e+01 4.664604456018518874e+01 4.696914978780863947e+01 4.730814670138889255e+01 4.757960889274691851e+01 4.737629099151234868e+01 4.560349633487653875e+01 4.348363425925925441e+01 4.279200472608025052e+01 4.192250192901234840e+01 4.198590326003086659e+01 4.197303144290123100e+01 4.196430169753086403e+01 4.201731047453703383e+01 4.207383921682098560e+01 4.207560667438271196e+01 4.203799816743826767e+01 4.203626398533950947e+01 4.212818335262345215e+01 4.227958574459876928e+01 4.250373022762345698e+01 4.279695119598765274e+01 4.312122202932098958e+01 4.343879484953703951e+01 4.373905333719135768e+01 4.404910976080247309e+01 4.432627314814814667e+01 4.459690393518518192e+01 4.486217255015431959e+01 4.515780381944444599e+01 4.546072386188271963e+01 4.576007474922839435e+01 4.607869116512345897e+01 4.643464988425925810e+01 4.676961275077160707e+01 4.677403404706790013e+01 4.581275559413580112e+01 4.350079571759259522e+01 4.245008777006172807e+01 4.207688753858025166e+01 4.152817901234568154e+01 4.153761766975308944e+01 4.150642891589506434e+01 4.155834297839506064e+01 4.174442274305555856e+01 4.175228973765432272e+01 4.175855806327160025e+01 4.183988908179012611e+01 4.201392746913580112e+01 4.224479600694444059e+01 4.254322434413580112e+01 4.287633777006173119e+01 4.324414544753086886e+01 4.357745563271605249e+01 4.389608748070988042e+01 4.418328944830246741e+01 4.445609037422839549e+01 4.472988715277777771e+01 4.501461805555555173e+01 4.529549575617284063e+01 4.558209104938271850e+01 4.589442997685185333e+01 4.622940586419753117e+01 4.659257137345678501e+01 4.684025125385802113e+01 4.660233796296296305e+01 4.503041232638889113e+01 4.319560715663580197e+01 4.255725839120370324e+01 4.230269193672840089e+01 4.195541956018518448e+01 4.200077112268517965e+01 4.209772087191358025e+01 4.223714988425926009e+01 4.230189043209876587e+01 4.227708526234567898e+01 4.220901620370370466e+01 4.220339168595678814e+01 4.227239438657407078e+01 4.244400173611111171e+01 4.268422550154321016e+01 4.296493586033950862e+01 4.324984712577160195e+01 4.352609182098765928e+01 4.377569251543209816e+01 4.400805796682099214e+01 4.421068576388888971e+01 4.441470100308642088e+01 4.463840518904321186e+01 4.486850597993826995e+01 4.511865837191357542e+01 4.539464795524691709e+01 4.572897617669753600e+01 4.603296537422839663e+01 4.597561969521605363e+01 4.501922405478394751e+01 4.302370515046296617e+01 4.228767168209876814e+01 4.196010320216049649e+01 4.184851176697530661e+01 4.182650752314815179e+01 4.194258777006172778e+01 4.207366512345679155e+01 4.212819685570988071e+01 4.205554542824074105e+01 4.194331066743826852e+01 4.189032407407407987e+01 4.194194444444444514e+01 4.208971064814814866e+01 4.232355420524691425e+01 4.260494309413579828e+01 4.291889033564815037e+01 4.322650462962963047e+01 4.350722656250000142e+01 4.374150125385802568e+01 4.396789737654321328e+01 4.418462914737654756e+01 4.439503616898147698e+01 4.460052662037036697e+01 4.483192467206789900e+01 4.507489197530863834e+01 4.535493393132716022e+01 4.561806471836419519e+01 4.553354166666666458e+01 4.442473813657407078e+01 4.221876880787036868e+01 4.136313512731481268e+01 4.104207561728394893e+01 4.089388744212963189e+01 4.078278838734568268e+01 4.073446421682098872e+01 4.078459924768518619e+01 4.104902150848765530e+01 4.109210744598765785e+01 4.105092785493827279e+01 4.109589506172839179e+01 4.123712239583333172e+01 4.146780574845679013e+01 4.173250675154321243e+01 4.200998215663580737e+01 4.233286554783950351e+01 4.263226369598766041e+01 4.290144097222222541e+01 4.319714265046296475e+01 4.348360484182098418e+01 4.377279128086419746e+01 4.405987798996913796e+01 4.435647472993827023e+01 4.470305459104937995e+01 4.505247781635802085e+01 4.542257330246913227e+01 4.565803337191358224e+01 4.533854263117284233e+01 4.360645929783950692e+01 4.183079041280864629e+01 4.133974537037037322e+01 4.111283371913580709e+01 4.100746672453703923e+01 4.091417920524691709e+01 4.089150607638888602e+01 4.097320987654320845e+01 4.105314911265431732e+01 4.116987509645061749e+01 4.120739004629629676e+01 4.125214506172839179e+01 4.138571132330246627e+01 4.157941647376543415e+01 4.186034481095678927e+01 4.217958333333333343e+01 4.256876494984567927e+01 4.298342640817900673e+01 4.335020158179012384e+01 4.362730372299382964e+01 4.389194926697530974e+01 4.412576871141975232e+01 4.437899739583333059e+01 4.465748022762345215e+01 4.496332851080246940e+01 4.527341917438271679e+01 4.563388358410493595e+01 4.603166666666666629e+01 4.632047598379629250e+01 4.617487606095678387e+01 4.501235869984567728e+01 4.319739293981481154e+01 4.260897183641975516e+01 4.234208092206790042e+01 4.221787663966049564e+01 4.214576340663580112e+01 4.214622685185185702e+01 4.223655092592592553e+01 4.230128375771604965e+01 4.226289351851852416e+01 4.197360001929012441e+01 4.204191502700616923e+01 4.211736979166666828e+01 4.226710407021604965e+01 4.247155430169753032e+01 4.273581356095678530e+01 4.304320457175925441e+01 4.338693913966049820e+01 4.365000771604938024e+01 4.388253038194444144e+01 4.409325231481481921e+01 4.431241753472222200e+01 4.457057677469135371e+01 4.486179591049383220e+01 4.514163532021605363e+01 4.542351466049382935e+01 4.574542100694444713e+01 4.602217689043209958e+01 4.586389901620370324e+01 4.475905333719135371e+01 4.310277681327160337e+01 4.250597270447531173e+01 4.223852527006172863e+01 4.213223331404321215e+01 4.212598813657407248e+01 4.222934654706789814e+01 4.239902343749999858e+01 4.246875048225308547e+01 4.244830922067901469e+01 4.241542245370370523e+01 4.247084924768518732e+01 4.289823398919752862e+01 4.307924623842592382e+01 4.333217158564814753e+01 4.391692033179012356e+01 4.419911554783950436e+01 4.446186294367284120e+01 4.472138020833332916e+01 4.493720244984567813e+01 4.515824266975308632e+01 4.536736979166666828e+01 4.561284866898148493e+01 4.589760320216049649e+01 4.623572096836419831e+01 4.650244743441357542e+01 4.634144483024691397e+01 4.502502073688271622e+01 4.302111593364197262e+01 4.243674238040123470e+01 4.216301022376543273e+01 4.203270206404321385e+01 4.192979311342592297e+01 4.187447675540123981e+01 4.191756751543209703e+01 4.198808497299382481e+01 4.200372058256172636e+01 4.197215711805555571e+01 4.198771363811728463e+01 4.208548225308641832e+01 4.226223331404321470e+01 4.249968798225308575e+01 4.336620997299382196e+01 4.351710069444444429e+01 4.372770929783950322e+01 4.393411458333333286e+01 4.415015239197530406e+01 4.438612075617283637e+01 4.462006606867284120e+01 4.485761815200617519e+01 4.511867428626543131e+01 4.542214554398148607e+01 4.576554735725308376e+01 4.612013599537036868e+01 4.639200424382715937e+01 4.616551408179012839e+01 4.477884596836420172e+01 4.320190441743827137e+01 4.263328173225308149e+01 4.241384982638888346e+01 4.231544222608025052e+01 4.222902536651234584e+01 4.220753568672839862e+01 4.229816647376543415e+01 4.241664930555555202e+01 4.246556664737654785e+01 4.250192804783950606e+01 4.258237413194444798e+01 4.274264371141975261e+01 4.297453607253086005e+01 4.329883632330247423e+01 4.365250096450617434e+01 4.403736448688271565e+01 4.510497251157407561e+01 4.526960696373456727e+01 4.546875096450617804e+01 4.569666811342592894e+01 4.599358892746913341e+01
5.385625482253086460e+00 5.363192033179012164e+00 5.313655960648148380e+00 5.104789737654320980e+00 4.841826774691357471e+00 4.747321084104937583e+00 4.679035493827160330e+00 4.667347608024691397e+00 4.675625482253086496e+00 4.671674382716049401e+00 4.696184895833333428e+00 4.712298900462962514e+00 4.718362750771604830e+00 4.751336805555555820e+00 4.775495756172839279e+00 5.100234857253086673e+00 5.120381462191358146e+00 5.091392746913579792e+00 5.042115644290123377e+00 4.953286072530864281e+00 4.811026716820988369e+00 4.760443672839505425e+00 4.796006944444444642e+00 4.849799382716049934e+00 4.886651716820987090e+00 4.872921489197530320e+00 4.901834972993826867e+00 4.918331404320987588e+00 4.926145351080247536e+00 4.937976948302469360e+00 4.926846547067901483e+00 4.963890817901234875e+00 4.922738715277778176e+00 4.847965856481481595e+00 4.758687789351851549e+00 4.733675733024691468e+00 4.714579957561728207e+00 4.720461998456789487e+00 4.747289255401234698e+00 4.737955729166666963e+00 4.760448495370370736e+00 4.782554494598765693e+00 4.793739872685184977e+00 4.825755690586420066e+00 4.840348668981481417e+00 4.829089988425925739e+00 4.819102527006172032e+00 4.827427179783950528e+00 4.862798996913580751e+00 4.814151716820988192e+00 4.883196855709876161e+00 4.880049672067901412e+00 4.861842206790123022e+00 4.866684992283950351e+00 4.854865933641974607e+00 4.853190586419753316e+00 4.868122588734568268e+00 4.879588155864198029e+00 4.872346643518517872e+00 4.871887056327159904e+00 4.868615933641975424e+00 4.879098668981481701e+00 5.065457175925926592e+00 5.001528260030864814e+00 4.930512635030863677e+00 4.870744598765432087e+00 4.801773244598765089e+00 4.777093942901234236e+00 4.758333815586419213e+00 4.765516010802469005e+00 4.772419463734568268e+00 4.782162905092592453e+00 4.785859374999999361e+00 4.789021990740740975e+00 4.790844425154321407e+00 4.809142071759259451e+00 4.858095100308641889e+00 4.920305266203703454e+00 4.943568672839505851e+00 4.938276909722222108e+00 4.902654320987654302e+00 4.894429976851851549e+00 4.879992283950617349e+00 4.866419753086420386e+00 4.872433931327161183e+00 4.856337287808641712e+00 4.880461998456789630e+00 4.887344714506173027e+00 4.911993634259259167e+00 4.889087094907407227e+00 4.877410783179012554e+00 4.845911458333334032e+00 4.805334201388888893e+00 5.171679205246913824e+00 5.121370563271605114e+00 5.039717399691357791e+00 5.003516107253086709e+00 4.958637152777777501e+00 4.936580825617284063e+00 4.909281442901234804e+00 4.888222897376543585e+00 4.859076485339505425e+00 4.849097704475308745e+00 4.866190682870369599e+00 4.889462287808642671e+00 4.928882137345678593e+00 4.913829571759259274e+00 4.915933641975308355e+00 4.898633777006172529e+00 4.878723958333333499e+00 4.868065200617284205e+00 4.848600501543209873e+00 4.839383198302469324e+00 4.834999035493827257e+00 4.847486496913580467e+00 4.844543306327159904e+00 4.813223379629629761e+00 4.804585744598765196e+00 4.804891493055555074e+00 4.801199363425926236e+00 4.794438175154320803e+00 4.791492573302469360e+00 4.788898533950617598e+00 4.778484278549382402e+00 5.009517264660493296e+00 4.980522280092592347e+00 4.924187403549382225e+00 4.899052854938271473e+00 4.862224151234568303e+00 4.820424864969135470e+00 4.807997685185185333e+00 4.820148533950617598e+00 4.858238811728394779e+00 4.793253279320987659e+00 4.796198398919752748e+00 4.761268807870370878e+00 4.741485821759259700e+00 4.735989101080246400e+00 4.726220100308641925e+00 4.718399402006173027e+00 4.720343364197531422e+00 4.733580246913580147e+00 4.743391203703703596e+00 4.734794077932098944e+00 4.734279031635802326e+00 4.725851176697530853e+00 4.713784722222222001e+00 4.700804880401235231e+00 4.697986593364197105e+00 4.709421296296296688e+00 4.728766396604937583e+00 4.736918885030863891e+00 4.764949363425925455e+00 4.779164737654320483e+00 4.784552469135802788e+00 5.003388310185185262e+00 4.968581211419753174e+00 4.929044174382715582e+00 4.915677083333332753e+00 4.976645447530864352e+00 4.827146990740740939e+00 4.847565586419753103e+00 4.833095582561727888e+00 4.805390142746913007e+00 4.792498553240740478e+00 4.774376446759259984e+00 4.750500578703703347e+00 4.759912712191358253e+00 4.780422935956790020e+00 4.764850983796296013e+00 4.778816068672839812e+00 4.770160590277777501e+00 4.786063850308641676e+00 4.776247588734568339e+00 4.761460744598765338e+00 4.736641107253086957e+00 4.744680266203703312e+00 4.740820794753086709e+00 4.769459394290123555e+00 4.778184799382716008e+00 4.783609182098765622e+00 4.771232156635802468e+00 4.779765142746913220e+00 4.794135802469136287e+00 4.805366512345679020e+00 4.813053626543210228e+00 4.959656153549382829e+00 5.015115258487654160e+00 4.977392939814815342e+00 4.904897762345679091e+00 4.877381365740740549e+00 4.840692033179013087e+00 4.832461902006173204e+00 4.810493827160493119e+00 4.814239004629629726e+00 4.821053722993827506e+00 4.827477334104938400e+00 4.824963348765431981e+00 4.816517650462962763e+00 4.810366512345678913e+00 4.798296199845679233e+00 4.794050925925925632e+00 4.804881847993827115e+00 4.797618152006172032e+00 4.795185667438271793e+00 4.801160300925926272e+00 4.801439525462963154e+00 4.820339023919752997e+00 4.816948302469135967e+00 4.814908371913580787e+00 4.828531057098765622e+00 4.901914544753085856e+00 4.980420524691358430e+00 5.007649016203703951e+00 4.959775270061729024e+00 4.925875771604937725e+00 4.964749710648147740e+00 4.929377411265432052e+00 4.862683256172839918e+00 4.864736689814814774e+00 4.856755401234567948e+00 4.875627893518518441e+00 4.872118537808641570e+00 4.872472029320987552e+00 4.854440104166666714e+00 4.828885030864197070e+00 4.818086419753086602e+00 4.796718750000000142e+00 4.796863425925925739e+00 4.799746334876543230e+00 4.817538097993827151e+00 4.832168209876543052e+00 4.841647376543209980e+00 4.864288676697531066e+00 4.900699266975307999e+00 4.938192515432098695e+00 4.852363040123456095e+00 4.846431327160493296e+00 4.828094618055556175e+00 4.826677276234567771e+00 4.805614390432098482e+00 4.794841820987654657e+00 4.770870466820987588e+00 4.783719135802469324e+00 4.794449749228395063e+00 4.814593942901234769e+00 4.807589699074073408e+00 4.917093942901234804e+00 4.896879340277777715e+00 4.855879629629630045e+00 4.836540316358025393e+00 4.823611111111111072e+00 4.798449074074073728e+00 4.808460648148147776e+00 4.803004436728395277e+00 4.797394386574074687e+00 4.805157696759259522e+00 4.824289158950616496e+00 4.930950520833333073e+00 4.845595582561728065e+00 4.843411940586419995e+00 4.815913387345679197e+00 4.807625385802468898e+00 4.794709683641975140e+00 4.774600694444444571e+00 4.760835262345679553e+00 4.753035300925925632e+00 4.762551601080247110e+00 4.775472608024691645e+00 4.782793209876543550e+00 4.768222415123456237e+00 4.772657214506172529e+00 4.751401427469135186e+00 4.728879726080247536e+00 4.738946759259259345e+00 4.759682195216049294e+00 4.764364390432098695e+00 4.765809220679012803e+00 4.982841435185185297e+00 4.955274402006172529e+00 4.917778260030863713e+00 4.886099537037036811e+00 4.887470582561728172e+00 4.952687114197530605e+00 4.800560378086419888e+00 4.819278067129629584e+00 4.814797453703703489e+00 4.795092592592592240e+00 4.774845196759258670e+00 4.776185860339506206e+00 4.769911265432098979e+00 4.748486207561727568e+00 4.765001446759259629e+00 4.757217399691358040e+00 4.760928819444444571e+00 4.765184702932098837e+00 4.747185088734568126e+00 4.730534818672839315e+00 4.719717881944444748e+00 4.745141782407407582e+00 4.755953414351852260e+00 4.763007330246913362e+00 4.766821469907407405e+00 4.802804301697530143e+00 4.793053144290123413e+00 4.803563368055555394e+00 4.814095775462963189e+00 4.824608410493827826e+00 5.078463541666667247e+00 5.069071180555555500e+00 5.013514660493827435e+00 5.005218942901234591e+00 4.967153742283950457e+00 4.866587094907407263e+00 4.882342785493826831e+00 4.873384934413580005e+00 4.862884837962962337e+00 4.855532407407407547e+00 4.838069540895061138e+00 4.829227430555556033e+00 4.836458333333333748e+00 4.832048128858025038e+00 4.818812210648148131e+00 4.816983989197531457e+00 4.826693672839505567e+00 4.829921392746913789e+00 4.802672646604938755e+00 4.799869791666666607e+00 4.788822820216049436e+00 4.787350019290124159e+00 4.794860628858024221e+00 4.797480709876542626e+00 4.815311535493826511e+00 4.816736593364197461e+00 4.832965374228394673e+00 4.844636863425925810e+00 4.840909529320987836e+00 4.861348379629630401e+00 4.838389756944444287e+00 5.086310763888889142e+00 5.108416280864197745e+00 4.958248456790124159e+00 4.923453896604939040e+00 4.895097415123457196e+00 4.868212287808641570e+00 4.849110243055555713e+00 4.829225019290123377e+00 4.824204764660493971e+00 4.810560378086419675e+00 4.806185860339505567e+00 4.801860532407407511e+00 4.820532889660493758e+00 4.808153452932098837e+00 4.807583429783950812e+00 4.800957754629629370e+00 4.799053819444444535e+00 4.778858506944444251e+00 4.781316550925925668e+00 4.777038966049382829e+00 4.793186246141975637e+00 4.794486400462963260e+00 4.814181616512345663e+00 4.831384066358024754e+00 4.840660686728394779e+00 4.839592013888888822e+00 4.852185088734567664e+00 4.876071566358024079e+00 4.877376060956789772e+00 4.894074556327161041e+00 4.902022569444444144e+00 4.981946855709876942e+00 5.032481674382716541e+00 4.998305844907407369e+00 4.941446277006172672e+00 4.902927758487654053e+00 4.892296006944444109e+00 4.878003472222221859e+00 4.838910590277778034e+00 4.821556230709876267e+00 4.813199266975308532e+00 4.804325327932098766e+00 4.816086998456790447e+00 4.798804012345678771e+00 4.780392071759259842e+00 4.775959683641975317e+00 4.783459201388889248e+00 4.785669367283950315e+00 4.802169656635802752e+00 4.788212287808642387e+00 4.800765335648148557e+00 4.814519193672839315e+00 4.819476755401234769e+00 4.848035300925926272e+00 4.851071566358024612e+00 4.871674382716049578e+00 4.891467496141975069e+00 4.888913483796296866e+00 4.881877411265431732e+00 4.882962962962963616e+00 4.893020351080246577e+00 5.008547935956789487e+00 4.979651331018518867e+00 4.943003954475308603e+00 4.913259548611111249e+00 4.896741415895061955e+00 4.869747299382716221e+00 4.852210165895061600e+00 4.850650559413580254e+00 4.811973861882716363e+00 4.827016782407407725e+00 4.825576292438271686e+00 4.810048225308642067e+00 4.804971064814814063e+00 4.802280574845679162e+00 4.800408950617283566e+00 4.807612364969136465e+00 4.788005401234568303e+00 4.792599344135802575e+00 4.804999517746913362e+00 4.813497781635802220e+00 4.816576003086419533e+00 4.828636670524691255e+00 4.862868441358024540e+00 4.883954957561728705e+00 4.870329861111111214e+00 4.891096161265432229e+00 4.887927276234568019e+00 4.884001253858024860e+00 4.891167052469135967e+00 4.917235725308641392e+00 4.897812499999999680e+00 5.108114390432098695e+00 5.089931037808641534e+00 4.919887635030864459e+00 4.922920042438271970e+00 4.902360628858025038e+00 4.896645447530864281e+00 4.858428337191357471e+00 4.851372010030863713e+00 4.833494405864198207e+00 4.839020061728394495e+00 4.863990162037037379e+00 4.875557002314814703e+00 4.868612557870370061e+00 4.871308352623456628e+00 4.860770640432098944e+00 4.847496141975308426e+00 4.830114776234568197e+00 4.811618441358024079e+00 4.802433449074074545e+00 4.815942804783950315e+00 4.828523823302468543e+00 4.849973476080247536e+00 4.839246238425926272e+00 4.855631751543209695e+00 4.847278163580246435e+00 4.871635802469135967e+00 4.879223090277777786e+00 4.880281153549382189e+00 4.873462094907407227e+00 4.877554976851851798e+00 4.906885127314815520e+00 5.004397665895061742e+00 5.066152584876543408e+00 4.990207368827160650e+00 4.963053144290123342e+00 4.914659529320987374e+00 4.886259645061728385e+00 4.849961419753086034e+00 4.834742476851852544e+00 4.830497202932098944e+00 4.830332272376542946e+00 4.845611496913580396e+00 4.846835937499999858e+00 4.835023630401233952e+00 4.820096450617283423e+00 4.806005015432098126e+00 4.795769193672839492e+00 4.814681712962962656e+00 4.814459876543209838e+00 4.842656250000000107e+00 4.827473476080246684e+00 4.829949363425925846e+00 4.837752700617284241e+00 4.855188078703703169e+00 4.842484085648147918e+00 4.851796874999999787e+00 4.873112461419752961e+00 4.874328221450617171e+00 4.873736496913580574e+00 4.895022665895061742e+00 4.948707079475308745e+00 5.012578125000000107e+00 5.021494984567901554e+00 5.056714409722221859e+00 4.995010127314814419e+00 4.937398726851851549e+00 4.902246817129629619e+00 4.883993537808642316e+00 4.859155574845678949e+00 4.845194347993826867e+00 4.834273726851852082e+00 4.838517071759259380e+00 4.835699749228394850e+00 4.834009452160493936e+00 4.813543595679012910e+00 4.808951099537036811e+00 4.772464313271605363e+00 4.777474922839505922e+00 4.775658757716048974e+00 4.772578607253087135e+00 4.782799961419753387e+00 4.800071855709876267e+00 4.796983506944444642e+00 4.811057581018518547e+00 4.801874999999999893e+00 4.823767361111110930e+00 4.839586226851851691e+00 4.854008969907407156e+00 4.848559992283950848e+00 4.854473861882715902e+00 4.856008873456789665e+00 4.869227912808641534e+00 4.975803433641975637e+00 4.993568672839506561e+00 4.988367573302468827e+00 4.935158661265432123e+00 4.887217399691357933e+00 4.850010127314814845e+00 4.831542245370370914e+00 4.801882233796296084e+00 4.800284529320988369e+00 4.811184895833332753e+00 4.800850212191358324e+00 4.789949363425925810e+00 4.794446373456790589e+00 4.780577256944444464e+00 4.764538966049382651e+00 4.771989776234567771e+00 4.749339313271605079e+00 4.753821855709876587e+00 4.773962191358024576e+00 4.786032986111110610e+00 4.808999324845679268e+00 4.802093460648148238e+00 4.800192901234567877e+00 4.822024016203703134e+00 4.812812499999999716e+00 4.842800443672839350e+00 4.853883101851852011e+00 4.844144483024691361e+00 4.853492476851852366e+00 4.844466145833333570e+00 4.871860050154321442e+00 4.966268807870370061e+00 5.018877314814814916e+00 5.025941358024691219e+00 4.958043016975309136e+00 4.911256751543209731e+00 4.860422935956790091e+00 4.825024594907407760e+00 4.827888695987654799e+00 4.822594039351852047e+00 4.813189139660494220e+00 4.812898823302468543e+00 4.803890817901234733e+00 4.811930941358024683e+00 4.800595100308642671e+00 4.800807291666666643e+00 4.800429687500000320e+00 4.772167245370370736e+00 4.787536168981481488e+00 4.775565682870370310e+00 4.790642843364197212e+00 4.797049575617283956e+00 4.812387635030864530e+00 4.817592592592592204e+00 4.817356770833333357e+00 4.828812692901234271e+00 4.819443962191358288e+00 4.823117283950616674e+00 4.823528163580246719e+00 4.903655478395061884e+00 4.781900077160494256e+00 4.849677372685185617e+00 4.840162037037036846e+00 4.819719810956789807e+00 4.797359664351851904e+00 4.772443094135802255e+00 4.755172164351852082e+00 4.744880883487654799e+00 4.742069830246912865e+00 4.750160590277777040e+00 4.759866898148148451e+00 4.753422550154320803e+00 4.743996431327160757e+00 4.727814429012345165e+00 4.710326967592592062e+00 4.700682388117284560e+00 4.715696855709876623e+00 4.707481674382716363e+00 4.711293402777777750e+00 4.727419463734568339e+00 4.730478877314815200e+00 4.740526138117283850e+00 4.743174189814815200e+00 4.752472993827161041e+00 4.751006462191357471e+00 4.751732735339506242e+00 4.750889274691358466e+00 4.768458236882715973e+00 4.785421489197530853e+00 4.790292245370370239e+00 4.705321180555555038e+00 4.739552951388889213e+00 4.781186824845679695e+00 4.755946662808641534e+00 4.723165991512345840e+00 4.696022858796295552e+00 4.685144193672839741e+00 4.684112654320987446e+00 4.679057195216049791e+00 4.676660397376543266e+00 4.665540605709876942e+00 4.650278260030864530e+00 4.641794463734568055e+00 4.637450327932098659e+00 4.614758391203703347e+00 4.598717206790123413e+00 4.625046296296296156e+00 4.619232735339505957e+00 4.634900655864197638e+00 4.650892168209876942e+00 4.653776041666666252e+00 4.676301601080247394e+00 4.681786747685184658e+00 4.692181230709876694e+00 4.698837287808641960e+00 4.690235821759259238e+00 4.711574556327160046e+00 4.717703993055555323e+00 4.733681520061728598e+00 4.802397762345679055e+00 4.688471739969136465e+00 4.682133487654320803e+00 4.679877989969136287e+00 4.759749228395061316e+00 4.751035397376543123e+00 4.716882233796297008e+00 4.685727237654321087e+00 4.656394193672839243e+00 4.653105227623457019e+00 4.669739583333333499e+00 4.666842689043209980e+00 4.630803433641975886e+00 4.619843267746913007e+00 4.601255304783950173e+00 4.606729841820987659e+00 4.601982542438271651e+00 4.624479166666666252e+00 4.627272858796295907e+00 4.650747010030864992e+00 4.677133487654320909e+00 4.664375964506173311e+00 4.668453414351851904e+00 4.664249131944444571e+00 4.688340084876543301e+00 4.687826485339505744e+00 4.700351562499999858e+00 4.697814911265432158e+00 4.716504147376543443e+00 4.736054205246913007e+00 4.755993441358024931e+00 4.675328414351851869e+00 4.684374035493827471e+00 4.681706211419752961e+00 4.714439621913579792e+00 4.715323109567902016e+00 4.677707851080247003e+00 4.648600501543209695e+00 4.653642939814814916e+00 4.648677662037036917e+00 4.650067997685185084e+00 4.655469232253086176e+00 4.648559027777777963e+00 4.646248553240741153e+00 4.617424286265431554e+00 4.597555941358024256e+00 4.590432098765432123e+00 4.580358796296296831e+00 4.580926408179013087e+00 4.590252218364197390e+00 4.614041280864197070e+00 4.634703896604938755e+00 4.640388213734568446e+00 4.655112364969135719e+00 4.657066936728394779e+00 4.655160590277778176e+00 4.664247685185184622e+00 4.668172260802468720e+00 4.677603202160494078e+00 4.752821662808641712e+00 4.614992766203703134e+00 4.656820023148148913e+00 4.645217013888888857e+00 4.617003761574073550e+00 4.615085358796296333e+00 4.709188850308642316e+00 4.680785590277777963e+00 4.637047646604938400e+00 4.633799672067901554e+00 4.621747202932098730e+00 4.630998263888888467e+00 4.609404417438271118e+00 4.603912037037037663e+00 4.574683641975308745e+00 4.569836033950616994e+00 4.564117476851851762e+00 4.551583236882716044e+00 4.553697916666666679e+00 4.566418788580246080e+00 4.586135223765432478e+00 4.581798804012345627e+00 4.594031153549383184e+00 4.605038580246913149e+00 4.613012635030864672e+00 4.635135030864197425e+00 4.634017650462962656e+00 4.632612364969135754e+00 4.654452642746913504e+00 4.701686921296295729e+00 4.581030574845678771e+00 4.564961419753086780e+00 4.566070601851851762e+00 4.562419463734568303e+00 4.550139371141975531e+00 4.530800057870370878e+00 4.545820312500000071e+00 4.645873360339505709e+00 4.618226273148147598e+00 4.604184027777778354e+00 4.577512056327161183e+00 4.562667341820987765e+00 4.531100501543209980e+00 4.529073591820987232e+00 4.514625289351852366e+00 4.518567708333333321e+00 4.533363715277777040e+00 4.538586998456790589e+00 4.541934799382715937e+00 4.555835262345678593e+00 4.565257040895061458e+00 4.581473283179012590e+00 4.575300925925925632e+00 4.582997202932098446e+00 4.598739390432098340e+00 4.600094521604938258e+00 4.614695698302469395e+00 4.642486496913580396e+00 4.635060281635801971e+00 4.550475019290122880e+00 4.583299575617283850e+00 4.587632137345678984e+00 4.566901523919753458e+00 4.552272376543209376e+00 4.545272472993826973e+00 4.542170138888888431e+00 4.531964699074074510e+00 4.622989486882715937e+00 4.612618634259259665e+00 4.594792631172839315e+00 4.567188464506172885e+00 4.543536361882716257e+00 4.523826195987654231e+00 4.515459104938271295e+00 4.507175443672839954e+00 4.540146122685185581e+00 4.534633005401234485e+00 4.551316068672839776e+00 4.550855516975309101e+00 4.546241801697530782e+00 4.572262249228394637e+00 4.585278742283950493e+00 4.585010127314815165e+00 4.588067611882715724e+00 4.588008777006173489e+00 4.607489872685185617e+00 4.641474247685185794e+00 4.656924672067901838e+00 4.694425636574074190e+00 4.612925829475308603e+00 4.601273148148147918e+00 4.599698591820987836e+00 4.572684220679012590e+00 4.564752121913580929e+00 4.553111014660493616e+00 4.561087480709876019e+00 4.566399016203703809e+00 4.569009452160494256e+00 4.620076678240740975e+00 4.622014853395062239e+00 4.557207754629629903e+00 4.523718171296296831e+00 4.529185474537037237e+00 4.511169463734567842e+00 4.501934317129629548e+00 4.489370659722221824e+00 4.498070987654321229e+00 4.503354552469135186e+00 4.519001736111111889e+00 4.525802469135802752e+00 4.533201678240740939e+00 4.532906057098765373e+00 4.540037615740740939e+00 4.558846932870370239e+00 4.560742669753086176e+00 4.552701099537037166e+00 4.557156635802469324e+00 4.641466049382716008e+00 4.567053433641975246e+00 4.571332465277778034e+00 4.558048804012345023e+00 4.539507137345679233e+00 4.526003568672838817e+00 4.508683449074074368e+00 4.498095100308641570e+00 4.508464988425926023e+00 4.505353491512345876e+00 4.529136766975308426e+00 4.538552276234567806e+00 4.629706307870370630e+00 4.605701195987654373e+00 4.575304783950617349e+00 4.515561342592592453e+00 4.499687017746913043e+00 4.484359567901234911e+00 4.488733121141975424e+00 4.496220582561728740e+00 4.518144290123457196e+00 4.527923418209875983e+00 4.534634452160494433e+00 4.540951967592592453e+00 4.543065682870370381e+00 4.563367573302469005e+00 4.586191647376542946e+00 4.622992380401234946e+00 4.509629147376543301e+00 4.529439621913580183e+00 4.544223090277777821e+00 4.533135127314814383e+00 4.519493634259259984e+00 4.501587577160494291e+00 4.490658757716048832e+00 4.481210455246913860e+00 4.504175347222221681e+00 4.510589795524691858e+00 4.506365740740740478e+00 4.503816068672839457e+00 4.491455922067901341e+00 4.476529224537037166e+00 4.631605420524691041e+00 4.618872010030864672e+00 4.578304398148148380e+00 4.566491126543209766e+00 4.547927758487654515e+00 4.518125964506172210e+00 4.495681905864197248e+00 4.489026813271604688e+00 4.511148244598765622e+00 4.514645543981480991e+00 4.520321662808642671e+00 4.546266878858024718e+00 4.548707561728395632e+00 4.580211226851852224e+00 4.603514178240740939e+00 4.561533082561728847e+00 4.560687692901234769e+00 4.535043402777778176e+00 4.529199942129629619e+00 4.514364872685185937e+00 4.503581211419753316e+00 4.484279513888889568e+00 4.481358989197531173e+00 4.497138792438271970e+00 4.499428530092592915e+00 4.508874903549383362e+00 4.515317804783950173e+00 4.481437596450617455e+00 4.476787229938271828e+00 4.471903452932099121e+00 4.474487364969135683e+00 4.699811439043210193e+00 4.681022858796295871e+00 4.630485628858025393e+00 4.612462866512346160e+00 4.583191550925926450e+00
