2.170329224537036907e+02 2.170308521412036953e+02 2.169969772376543062e+02 2.168553342013888710e+02 2.167429157021605022e+02 2.167191898148148255e+02 2.167108815586419723e+02 2.167060556520061709e+02 2.167079181134259329e+02 2.167156303047839572e+02 2.167386250964506189e+02 2.167454547646605079e+02 2.167727150848765518e+02 2.167764626736110927e+02 2.167946913580246928e+02 2.167645510223765655e+02 2.166879296875000023e+02 2.166152772955246917e+02 2.165356684027777874e+02 2.164847005208333428e+02 2.164528414351851779e+02 2.164460267168209953e+02 2.166195061728395217e+02 2.167301268325617229e+02 2.168027758487654353e+02 2.168702059220678962e+02 2.169093971836419712e+02 2.169447612847222331e+02 2.169789240933641850e+02 2.169340263310185151e+02 2.169124599729938154e+02 2.169040176504629471e+02 2.169596084104938143e+02 2.169670543981481501e+02 2.169474493634259034e+02 2.169544497492283881e+02 2.169785035686728349e+02 2.169876277970679155e+02 2.169956766010802482e+02 2.169855271026234504e+02 2.169868841628086500e+02 2.169880820794753049e+02 2.169996793016975403e+02 2.170225077160493754e+02 2.170045486111111188e+02 2.170241690779321004e+02 2.170330193865740966e+02 2.170474898726851904e+02 2.170372569444444366e+02 2.170383907214506110e+02 2.170523852237654410e+02 2.170445312500000057e+02 2.170495958719135672e+02 2.170504793595679018e+02 2.170582465277777828e+02 2.170676919367284086e+02 2.170745442708333428e+02 2.170867587770061959e+02 2.170735585455246905e+02 2.170522202932098708e+02 2.170508521412037055e+02 2.170470288387345477e+02 2.170032937885802369e+02 2.170767298418209919e+02 2.170669864004629517e+02 2.170638184799382771e+02 2.170627690972222297e+02 2.170734428047839515e+02 2.170891618441358162e+02 2.170948157793209816e+02 2.170969082754629653e+02 2.171106954089506189e+02 2.171133174189814952e+02 2.171143451003086398e+02 2.171346035879629710e+02 2.171426774691358048e+02 2.171300622106481626e+02 2.171271098572530889e+02 2.171250569058641986e+02 2.171398345871913591e+02 2.171372709297839378e+02 2.171325684799382714e+02 2.171273403742283961e+02 2.171238126929012253e+02 2.171039322916666663e+02 2.171056283757716017e+02 2.171187770061728486e+02 2.171342274305555691e+02 2.171463903356481353e+02 2.171477363040123407e+02 2.171543470293210021e+02 2.171702869405864078e+02 2.171667269483024540e+02 2.170667853009259147e+02 2.171257180748456790e+02 2.171198736496913568e+02 2.171160513117283983e+02 2.171349937307098799e+02 2.171592573302469305e+02 2.171670707947531014e+02 2.171656852816358025e+02 2.171748360339506121e+02 2.171727826003086363e+02 2.171736824845679052e+02 2.171770167824074065e+02 2.171782195216049445e+02 2.171806910686728429e+02 2.171819960455246985e+02 2.171844483024691215e+02 2.171963372878086602e+02 2.172190581597222376e+02 2.172207995756172636e+02 2.172262027391975323e+02 2.172179600694444446e+02 2.172195481288580083e+02 2.172299344135802528e+02 2.172342163387345693e+02 2.172406872106481615e+02 2.172506365740740648e+02 2.172581158371913546e+02 2.172690649112654455e+02 2.172688782793210009e+02 2.172742192322530741e+02 2.172722564621913648e+02 2.171115885416666629e+02 2.171732826967592587e+02 2.171656958912037112e+02 2.171767785493827319e+02 2.171734288194444389e+02 2.171855333719135785e+02 2.172018436535493890e+02 2.172087581983024904e+02 2.172143233989197597e+02 2.172209283371913671e+02 2.172075540123456676e+02 2.171932783564814997e+02 2.171895760995370495e+02 2.171893856095679212e+02 2.171854967206789979e+02 2.171859915123456801e+02 2.171838565779320902e+02 2.171952382330246962e+02 2.171933034336419723e+02 2.171876851851851882e+02 2.171949450231481364e+02 2.171806037808642031e+02 2.171695090663580174e+02 2.171633603395061698e+02 2.171429407793209805e+02 2.171395254629629505e+02 2.171448172260802494e+02 2.171387774884259443e+02 2.171346749614197336e+02 2.171452054398148164e+02 2.171404648919753129e+02 2.170077440200617502e+02 2.170664843750000159e+02 2.170680579668209873e+02 2.170726142939814736e+02 2.170662717013888710e+02 2.170809707754629585e+02 2.170907069830246883e+02 2.171099156057098867e+02 2.171212099729938245e+02 2.171489843749999977e+02 2.171546132330246905e+02 2.171588966049382634e+02 2.171794473379629551e+02 2.171875279706790138e+02 2.171789800347222297e+02 2.171855960648148312e+02 2.171845640432098605e+02 2.171706052276234402e+02 2.171896701388888857e+02 2.172043499228394978e+02 2.172203718171296316e+02 2.172251355131172943e+02 2.172240716628086545e+02 2.172399971064814679e+02 2.172402623456790138e+02 2.172437577160493731e+02 2.172572767168209964e+02 2.172808314043209919e+02 2.172854089506172954e+02 2.172888126929012174e+02 2.172979938271604965e+02 2.172149103009259079e+02 2.172824334490740910e+02 2.172943967013888766e+02 2.173027845293210021e+02 2.173136665702160428e+02 2.173228882137345579e+02 2.173335445601851745e+02 2.173340239197530650e+02 2.173382595486111200e+02 2.173489877507716130e+02 2.173527560763888857e+02 2.173441917438271673e+02 2.173488917824074065e+02 2.173455314429012333e+02 2.173634235146604965e+02 2.173618778935185105e+02 2.173754933449073974e+02 2.173787697723765291e+02 2.173962919560185014e+02 2.174020124421296316e+02 2.174011289544752970e+02 2.173990890239197427e+02 2.174092177854938086e+02 2.174116970486111029e+02 2.174255574845678893e+02 2.174284129050925856e+02 2.174309775270061778e+02 2.174353800154320879e+02 2.174308873456790252e+02 2.174361911651234607e+02 2.173133000578703786e+02 2.173629219714506178e+02 2.173567920524691317e+02 2.173720346257715903e+02 2.173948953510802369e+02 2.174089660493827125e+02 2.174223770254629642e+02 2.174366912615740546e+02 2.174493986304012481e+02 2.174570124421296100e+02 2.174744314236110938e+02 2.174822516396604897e+02 2.175036207561728645e+02 2.175024522569444514e+02 2.175111352237654216e+02 2.175089713541666754e+02 2.175264761766975425e+02 2.175341054205246962e+02 2.175386771797839458e+02 2.175489390432098560e+02 2.175524233217592496e+02 2.175415427276234652e+02 2.175446185378086454e+02 2.175479894868827273e+02 2.175471204668209850e+02 2.175623533950617343e+02 2.175789472415123669e+02 2.175896180555555475e+02 2.176093475115740716e+02 2.176258314043209907e+02 2.176423683449073962e+02 2.176069092399691272e+02 2.176754962384259500e+02 2.176755536265432340e+02 2.176921556712963195e+02 2.176940923996913568e+02 2.177129393325617457e+02 2.177156814236111302e+02 2.177088151041666890e+02 2.177201152584876525e+02 2.177291555748456631e+02 2.177126692708333167e+02 2.176996397569444355e+02 2.176934403935185003e+02 2.177027165316358150e+02 2.177257175925925878e+02 2.177147188464506371e+02 2.177093957368827262e+02 2.177094521604938393e+02 2.177180362654320902e+02 2.177258854166666424e+02 2.177250371334876604e+02 2.177186998456789979e+02 2.177296720679012481e+02 2.177288797260802369e+02 2.177236106288580402e+02 2.177232875192901247e+02 2.177419936342592450e+02 2.177505869020061766e+02 2.177482431520061823e+02 2.177512962962962888e+02 2.177454422260802573e+02 2.175244733796296259e+02 2.176143388310185003e+02 2.176189626736110938e+02 2.176370408950617445e+02 2.176387885802469100e+02 2.176345741705247008e+02 2.176606365740740614e+02 2.176602271412037055e+02 2.176746870177469191e+02 2.176982899305555748e+02 2.177176924189814997e+02 2.177184022955246974e+02 2.177203795331789991e+02 2.177297014853395183e+02 2.177357677469135808e+02 2.177578583140432045e+02 2.177665417631172886e+02 2.177697868441357798e+02 2.177720100308642088e+02 2.177666136188271651e+02 2.177639916087962888e+02 2.177570939429012356e+02 2.177628862847222138e+02 2.177778173225308649e+02 2.177917655285494050e+02 2.177881872106481467e+02 2.177868455825617389e+02 2.177967780671296509e+02 2.178050342399691317e+02 2.178141222993827171e+02 2.177520191936728224e+02 2.178377324459876547e+02 2.178422786458333462e+02 2.178431264467592712e+02 2.178329335455246962e+02 2.178189877507716119e+02 2.178237345679012265e+02 2.178151089891975403e+02 2.178217833719135683e+02 2.178229721257716278e+02 2.178268393132715914e+02 2.178350925925925878e+02 2.178432026427469168e+02 2.178579952739197552e+02 2.178604677854938245e+02 2.178633198302468941e+02 2.178675491898148096e+02 2.178611771797839367e+02 2.178747815393518579e+02 2.178704079861111040e+02 2.178767505787037067e+02 2.178851003086419666e+02 2.179021860532407402e+02 2.178988864776234493e+02 2.179113083526234504e+02 2.179147072723765461e+02 2.179036955054012310e+02 2.179102859760802460e+02 2.178964530285493879e+02 2.178873423032407288e+02 2.178784389467592462e+02 2.177472887731481421e+02 2.178170515046296316e+02 2.178322309027777806e+02 2.178435691550925810e+02 2.178505189043210066e+02 2.178618156828703718e+02 2.178643214699074235e+02 2.178720703125000000e+02 2.178802454668209805e+02 2.179015755208333474e+02 2.179017293595678950e+02 2.179175945216049399e+02 2.179162861689814576e+02 2.179130531442901031e+02 2.179242558834876604e+02 2.179160599922839481e+02 2.179248683449074235e+02 2.179385156249999795e+02 2.179382585841049433e+02 2.179383453896604976e+02 2.179334389467592814e+02 2.179252758487654376e+02 2.179300144675925992e+02 2.179421947337962990e+02 2.179400530478395126e+02 2.179594130979938313e+02 2.179639670138888903e+02 2.179902396797839685e+02 2.180104137731481728e+02 2.180137914737654512e+02 2.180130434992283881e+02 2.179198967978395274e+02 2.179965002893518431e+02 2.180040692515432283e+02 2.180098823302469100e+02 2.180235691550925878e+02 2.180362133487654148e+02 2.180437692901234641e+02 2.180601277970679064e+02 2.180674098186728429e+02 2.180642351466049433e+02 2.180529388503086352e+02 2.180441420717592678e+02 2.180490687692901304e+02 2.180519753086419712e+02 2.180532503858024711e+02 2.180664843750000159e+02 2.180783482831790252e+02 2.180894743441357946e+02 2.180999942129629687e+02 2.181140104166666731e+02 2.181200159143518533e+02 2.181216570216049320e+02 2.181306597222222194e+02 2.181262422839506314e+02 2.181421281828703798e+02 2.181529991319444548e+02 2.181638647762345897e+02 2.181749421296296418e+02 2.181827927276234504e+02 2.181951195987654160e+02 2.181274242862654376e+02 2.182022598379629414e+02 2.181899223572530957e+02 2.181782267554012265e+02 2.181687147955246928e+02 2.181490634645061846e+02 2.181412234760802562e+02 2.181433352623456869e+02 2.181687499999999886e+02 2.181729137731481671e+02 2.181870746527777669e+02 2.181963729745370415e+02 2.182203009259259261e+02 2.182168682484567910e+02 2.182121720679012356e+02 2.182038681520061800e+02 2.182073273533950726e+02 2.182180555555555657e+02 2.182214125192901122e+02 2.182296788194444446e+02 2.182250516010802528e+02 2.182295273919753242e+02 2.182384307484568069e+02 2.182407995756172738e+02 2.182388507908950714e+02 2.182421045524691579e+02 2.182409143518518420e+02 2.182380468750000091e+02 2.182341169945987644e+02 2.182212765239197552e+02 2.182198138503086398e+02 2.181045244984567830e+02 2.181704697145061687e+02 2.181840157214506064e+02 2.181835325038580322e+02 2.181875183256173045e+02 2.182010681905864260e+02 2.182053043016975096e+02 2.181993967013889062e+02 2.182058723958333246e+02 2.182076721643518624e+02 2.181974127121913511e+02 2.182088478973765291e+02 2.182076470871913614e+02 2.182170326967592757e+02 2.182181934799382645e+02 2.182282990933641997e+02 2.182212919560185185e+02 2.182271079282407413e+02 2.182259244791666788e+02 2.182361699459876547e+02 2.182256076388889028e+02 2.182179171489197529e+02 2.182330613425925776e+02 2.182259157986111120e+02 2.182216917438271651e+02 2.182277420910493788e+02 2.182345375192901145e+02 2.182398702739197631e+02 2.182402411265432249e+02 2.182387601273148050e+02 2.182524937307098867e+02 2.182117785493827000e+02 2.182777883873456801e+02 2.182691777584876434e+02 2.182608328510802664e+02 2.182482407407407550e+02 2.182536868248456869e+02 2.182653559027777703e+02 2.182758960262345624e+02 2.182946542245370267e+02 2.183025969328703582e+02 2.183090596064814690e+02 2.183102512538580129e+02 2.183050511188271514e+02 2.182998288001543017e+02 2.182894950810185151e+02 2.182939771412036976e+02 2.182881491126543381e+02 2.182871117862654273e+02 2.183044550540123510e+02 2.183152285879629630e+02 2.183142679398148118e+02 2.183192235725308592e+02 2.183206032986111040e+02 2.183350043402777771e+02 2.183345746527777749e+02 2.183338614004629505e+02 2.183307667824074088e+02 2.183435980902777658e+02 2.183477551118827193e+02 2.183422400655864237e+02 2.182458728780864021e+02 2.182973929398148130e+02 2.183012953317901292e+02 2.182673857060185014e+02 2.182760190007716119e+02 2.182709312307098912e+02 2.182675694444444616e+02 2.182630815972222251e+02 2.182662726658950874e+02 2.182858198302469077e+02 2.182827203896604829e+02 2.182931577932098719e+02 2.182980463927469259e+02 2.182960715663580231e+02 2.182855189043209805e+02 2.182990629822530764e+02 2.182970867091049172e+02 2.182969579475308421e+02 2.183122381365740807e+02 2.183155324074074031e+02 2.183178804976851950e+02 2.183271889467592644e+02 2.183376287615740807e+02 2.183395756172839413e+02 2.183379783950617252e+02 2.183282127700617252e+02 2.183152951388888710e+02 2.183199676890432102e+02 2.183021074459876445e+02 2.182964660493827012e+02 2.183008275462962899e+02 2.181722096836419666e+02 2.182416092785493902e+02 2.182431462191358094e+02 2.182441184413580402e+02 2.182458767361111143e+02 2.182329533179012344e+02 2.182300279706790036e+02 2.182192915702160576e+02 2.182232899305555804e+02 2.182246209490740796e+02 2.182259606481481455e+02 2.182432002314814952e+02 2.182528819444444252e+02 2.182390248842592655e+02 2.182431524884259204e+02 2.182411434220679212e+02 2.182392076581789979e+02 2.182276239390432124e+02 2.182298697916666583e+02 2.182127382330246803e+02 2.182036603009259181e+02 2.182101533564814986e+02 2.182103216628086386e+02 2.181959191743827091e+02 2.182024720293210009e+02 2.182089043209876422e+02 2.182195515046296350e+02 2.182284698109567955e+02 2.182263503086419973e+02 2.182218277391975221e+02 2.182345934606481421e+02 2.181522752700617502e+02 2.182301890432098617e+02 2.182296195023148186e+02 2.182134722222222081e+02 2.182092505787037169e+02 2.181978168402777669e+02 2.182155299961419814e+02 2.182041835455246712e+02 2.181918002507715926e+02 2.181863334297839572e+02 2.181725048225308683e+02 2.181642062114197529e+02 2.181670288387345522e+02 2.181697825038580447e+02 2.181660469714506121e+02 2.181694000771605033e+02 2.181791343557098912e+02 2.181718108603394910e+02 2.181600998263888869e+02 2.181759630594135899e+02 2.181636284722222285e+02 2.181701822916666629e+02 2.181760426311728338e+02 2.181813975694444423e+02 2.181875786072531014e+02 2.181831944444444389e+02 2.181828501157407345e+02 2.181714332561728327e+02 2.181801789158950555e+02 2.181668161651234641e+02 2.180197559799382816e+02 2.180836540316358025e+02 2.180704451195987588e+02 2.180735759066357957e+02 2.180681061921296191e+02 2.180803317901234664e+02 2.180830333719135865e+02 2.180719603587963036e+02 2.180819502314814997e+02 2.180804007523148300e+02 2.180900786072530764e+02 2.180882720871913705e+02 2.181058878279320936e+02 2.180919777199074190e+02 2.181013392168209748e+02 2.181060257523148209e+02 2.181079456018518385e+02 2.181010614390432067e+02 2.180962562692901088e+02 2.180663440393518329e+02 2.180511559606481455e+02 2.180510363618827228e+02 2.180563541666666652e+02 2.180460040509259443e+02 2.180526919367283938e+02 2.180706370563271719e+02 2.180659172453703718e+02 2.180704075038580072e+02 2.180692563657407277e+02 2.180682725694444457e+02 2.180694169560185003e+02 2.179099922839506007e+02 2.179974874614197518e+02 2.179988266782407322e+02 2.180030594135802460e+02 2.180053674768518590e+02 2.180078853202160474e+02 2.180134823495370426e+02 2.180156018518518692e+02 2.180194290123456824e+02 2.180203607253086489e+02 2.180028076774691215e+02 2.179889752121913489e+02 2.179902734374999795e+02 2.179752782600308478e+02 2.179847540509259147e+02 2.179844680748456938e+02 2.179842915702160440e+02 2.180000516010802301e+02 2.180013642939814815e+02 2.179965702160493777e+02 2.180021108217592598e+02 2.180078674768518567e+02 2.180126311728394910e+02 2.180082200038580140e+02 2.180221590470679018e+02 2.180319584297839413e+02 2.180271653163580083e+02 2.180332354359567830e+02 2.180288228202160496e+02 2.180257310956790207e+02 2.180411955054012481e+02 2.179219376929012526e+02 2.179823929398148152e+02 2.179759736689814815e+02 2.179625337577160451e+02 2.179521537422839685e+02 2.179713647762345659e+02 2.179736593364197574e+02 2.179800144675925822e+02 2.179862866512345647e+02 2.179936250964506144e+02 2.180086603009259250e+02 2.180163001543209873e+02 2.180326692708333383e+02 2.180434784915123316e+02 2.180473350694444434e+02 2.180496407214506007e+02 2.180458145254629585e+02 2.180537663966049422e+02 2.180630150462963002e+02 2.180617091049382736e+02 2.180705791859568023e+02 2.180739916087963195e+02 2.180660344328703673e+02 2.180659784915123396e+02 2.180582156635802562e+02 2.180409047067901440e+02 2.180521383101851995e+02 2.180515981867283983e+02 2.180532899305555645e+02 2.180603520447530741e+02 2.179891314621913807e+02 2.180448963155864135e+02 2.180579113618827307e+02 2.180619584297839424e+02 2.180635392554012526e+02 2.180598625578703604e+02 2.180702666859567955e+02 2.180729538001543233e+02 2.180880521797839435e+02 2.180936805555555509e+02 2.181026798804012117e+02 2.181187784529321050e+02 2.181220510223765245e+02 2.181315895061728440e+02 2.181174826388889016e+02 2.181088792438271469e+02 2.181195061728395217e+02 2.181017341820987667e+02 2.181021754436728486e+02 2.181208188657407447e+02 2.181263469328703763e+02 2.181384620949073962e+02 2.181423577353395160e+02 2.181510763888888960e+02 2.181596899112654455e+02 2.181569429976851779e+02 2.181685542052469202e+02 2.181742042824074019e+02 2.181774744405864226e+02 2.181835609567901031e+02 2.181765567129629630e+02 2.181450168788580299e+02 2.182072419945987747e+02 2.182081172839505996e+02 2.182124527391975164e+02 2.182133367091049365e+02 2.181993764467592598e+02 2.181895206404320788e+02 2.181749430941358128e+02 2.181684350887345545e+02 2.181672921489197279e+02 2.181752261766975209e+02 2.181768875385802460e+02 2.181848929398148300e+02 2.181939096257715960e+02 2.182166661844135831e+02 2.182151036844135774e+02 2.182191411072530798e+02 2.182140668402777806e+02 2.182245606674382543e+02 2.182290147569444514e+02 2.182263343942901201e+02 2.182300130208333258e+02 2.182339457947530832e+02 2.182270380015432067e+02 2.182310117669753140e+02 2.182349966242283870e+02 2.182527700617283983e+02 2.182474676890432193e+02 2.182440321180555429e+02 2.182367915702160417e+02 2.182332171103394955e+02 2.181261887538580027e+02 2.181913662229938211e+02 2.181919675925925901e+02 2.181960927854938177e+02 2.182058154899691260e+02 2.182011979166666720e+02 2.182170124421296293e+02 2.182138276427469350e+02 2.182208135609567705e+02 2.182235040509259250e+02 2.182312037037037271e+02 2.182404243827160428e+02 2.182430246913580447e+02 2.182527329282407322e+02 2.182596474729938336e+02 2.182699406828703843e+02 2.182896387924382680e+02 2.182875916280864317e+02 2.182894261188271514e+02 2.182896870177468998e+02 2.182859172453703707e+02 2.182837037037037078e+02 2.182849990354938257e+02 2.182722405478395160e+02 2.182780357831790354e+02 2.182919835069444616e+02 2.182851673418209941e+02 2.182941222993827068e+02 2.182920760995370415e+02 2.182940205439814747e+02 2.182285850694444491e+02 2.182918364197530821e+02 2.182909582368827159e+02 2.182824353780864328e+02 2.182839713541666526e+02 2.182820471643518374e+02 2.182888208912037271e+02 2.183042674575617355e+02 2.183022352430555486e+02 2.183037813464506200e+02 2.183119285300925867e+02 2.183117100694444446e+02 2.183140374228395046e+02 2.183032928240740773e+02 2.183040938464506269e+02 2.182954952739197552e+02 2.183069338348765598e+02 2.183203120177469145e+02 2.183198326581790241e+02 2.183410407021604840e+02 2.183489284336419871e+02 2.183428477044753038e+02 2.183465133101851734e+02 2.183488257137345840e+02 2.183515311535493879e+02 2.183595447530863964e+02 2.183868745177469179e+02 2.183919092399691522e+02 2.183851133294753026e+02 2.183775718557099026e+02 2.183787663966049593e+02 2.183478843557098799e+02 2.184244989390432181e+02 2.184110710841049183e+02 2.183961487268518624e+02 2.183832966820987735e+02 2.183807426697530900e+02 2.183870380015432033e+02 2.184015697337962933e+02 2.184080512152777658e+02 2.184031052276234561e+02 2.184154345100308774e+02 2.184289409722222217e+02 2.184424561149691328e+02 2.184364207175925969e+02 2.184329726080246985e+02 2.184357016782407186e+02 2.184301837384259386e+02 2.184404904513888823e+02 2.184491044560185173e+02 2.184577430555555395e+02 2.184628877314814872e+02 2.184592447916666629e+02 2.184571146797839560e+02 2.184485908564814736e+02 2.184515567129629687e+02 2.184503742283950771e+02 2.184403129822530900e+02 2.184423529128086443e+02 2.184334702932098651e+02 2.184288430748456733e+02 2.184362977430555475e+02 2.183567833719135933e+02 2.184239438657407391e+02 2.184288155864197449e+02 2.184328549382716176e+02 2.184259114583333314e+02 2.184273789544753015e+02 2.184373736496913807e+02 2.184380020254629642e+02 2.184308680555555497e+02 2.184442669753086363e+02 2.184339014274691522e+02 2.184360175540123521e+02 2.184473099922839481e+02 2.184425197723765564e+02 2.184478231095679064e+02 2.184536115933642009e+02 2.184394468557098605e+02 2.184394762731481308e+02 2.184317785493827273e+02 2.184404214891975471e+02 2.184475819830246905e+02 2.184375438850308626e+02 2.184339535108024677e+02 2.184250178433641736e+02 2.184333637152777783e+02 2.184490128279321084e+02 2.184521672453703900e+02 2.184514925733024597e+02 2.184565171682098708e+02 2.184557966820987644e+02 2.183811631944444400e+02 2.184512958140432204e+02 2.184419111689814770e+02 2.184425684799382736e+02 2.184422907021604772e+02 2.184505444637345590e+02 2.184442187500000045e+02 2.184325675154320834e+02 2.184324628665123669e+02 2.184343470293209748e+02 2.184242578125000023e+02 2.184304928626543187e+02 2.184344651813271412e+02 2.184402531828703786e+02 2.184455719521604919e+02 2.184626519097222115e+02 2.184616001157407652e+02 2.184582065007715812e+02 2.184598413387345488e+02 2.184598726851851893e+02 2.184529644097222274e+02 2.184730897955246860e+02 2.184792428626543312e+02 2.184767877121913671e+02 2.184710720486111200e+02 2.185341386959876502e+02 2.185792004243827193e+02 2.185915938464506212e+02
4.691681134259259589e-01 4.701740933641975206e-01 4.811115933641975650e-01 5.294290123456789621e-01 5.870703125000000799e-01 6.255642361111111160e-01 6.403997878086420403e-01 6.444536072530864246e-01 6.500896990740739900e-01 6.513551311728394966e-01 6.567009066358023839e-01 6.553448109567900914e-01 6.656905864197530942e-01 6.700641396604938294e-01 6.734230324074074181e-01 6.325332754629628962e-01 5.553448109567901136e-01 4.628235918209876454e-01 3.819926697530863779e-01 3.013281250000000022e-01 2.368557098765432245e-01 1.907778742283950668e-01 2.309186921296296213e-01 2.610170717592592560e-01 2.871691743827160526e-01 3.101572145061728403e-01 3.263681520061728070e-01 3.412360146604938582e-01 3.675718557098765493e-01 3.470134066358024350e-01 3.359104938271605389e-01 3.554422260802469480e-01 2.975925925925925752e-01 2.889800347222222232e-01 2.995847800925925952e-01 3.118060378086419671e-01 3.221797839506172489e-01 3.218089313271604857e-01 3.212948495370370749e-01 3.222053433641975384e-01 3.202946566358024771e-01 3.195220871913579952e-01 3.223090277777777568e-01 3.251297260802469280e-01 3.249368248456790398e-01 3.247241512345679371e-01 3.235088734567901358e-01 3.266888503086419759e-01 3.239621913580246759e-01 3.242713155864197505e-01 3.243451003086419981e-01 3.232513503086419937e-01 3.267573302469136132e-01 3.241830632716049543e-01 3.273746141975308888e-01 3.278134645061728247e-01 3.288782793209876210e-01 3.323668981481481821e-01 3.276003086419753130e-01 3.319646990740741099e-01 3.240625000000000311e-01 3.255748456790123480e-01 3.814829282407407041e-01 3.030280671296295969e-01 3.012205825617283450e-01 3.090051118827160659e-01 3.095780285493827111e-01 3.104764660493827266e-01 3.129301697530864068e-01 3.161757330246913189e-01 3.187938850308641991e-01 3.195230516975308688e-01 3.152401620370370305e-01 3.095867091049382958e-01 3.148929398148148096e-01 3.175810185185185541e-01 3.217153742283950790e-01 3.226364776234568188e-01 3.121942515432098442e-01 3.175414737654321251e-01 3.205941358024691490e-01 3.187639853395061729e-01 3.164515817901235040e-01 3.199170524691358208e-01 3.174247685185185297e-01 3.193248456790123702e-01 3.221841242283950413e-01 3.162147955246913389e-01 3.139448302469135532e-01 3.122448881172839030e-01 3.121069637345678660e-01 3.127690972222221810e-01 3.177647569444444486e-01 3.932373649691358053e-01 3.199758873456789998e-01 3.128091242283950191e-01 3.147019675925926130e-01 3.234317129629629695e-01 3.257831790123457139e-01 3.323982445987653800e-01 3.312856867283950901e-01 3.297337962962962887e-01 3.308830054012346089e-01 3.240803433641975539e-01 3.297019675925925708e-01 3.321407214506172934e-01 3.299628665123456872e-01 3.290991512345678993e-01 3.332185570987654111e-01 3.325940393518518889e-01 3.349961419753086367e-01 3.389482060185184942e-01 3.350964506172839363e-01 3.349011381172839474e-01 3.331370563271605079e-01 3.303785686728394899e-01 3.338281250000000311e-01 3.319087577160493852e-01 3.290552662037036780e-01 3.296233603395061773e-01 3.287837577160493963e-01 3.292486496913580307e-01 3.311222029320987637e-01 3.344420331790123879e-01 4.112692901234568099e-01 3.230140817901234751e-01 3.208979552469136132e-01 3.220563271604938160e-01 3.250853587962962976e-01 3.273302469135802584e-01 3.265981867283950790e-01 3.282624421296296280e-01 3.302695794753086611e-01 3.350704089506172934e-01 3.300188078703704120e-01 3.271045524691358342e-01 3.211598186728394921e-01 3.226808449074073937e-01 3.194087577160493741e-01 3.206640625000000133e-01 3.198813657407407751e-01 3.164076967592592271e-01 3.199373070987654444e-01 3.231664737654321162e-01 3.193383487654321007e-01 3.201880787037037490e-01 3.195833333333333304e-01 3.175038580246913322e-01 3.154340277777777923e-01 3.111824845679012630e-01 3.111940586419753019e-01 3.089019097222222010e-01 3.122945601851851993e-01 3.103399884259259167e-01 3.080922067901234462e-01 4.003573495370370550e-01 3.064342206790123257e-01 3.021141975308642147e-01 3.039274691358024860e-01 3.032937885802469147e-01 3.079422260802469058e-01 3.090485146604938227e-01 3.091888503086420159e-01 3.113261959876543195e-01 3.075149498456790087e-01 3.082474922839505971e-01 3.152184606481481799e-01 3.184620949074074003e-01 3.135132137345679193e-01 3.117891589506172623e-01 3.182749807098765871e-01 3.207079475308641792e-01 3.181114969135802051e-01 3.207971643518518490e-01 3.232267554012345778e-01 3.233632330246913322e-01 3.251331018518518468e-01 3.193359375000000000e-01 3.162509645061728492e-01 3.188575424382716350e-01 3.143918788580246648e-01 3.193552276234567500e-01 3.214395254629630050e-01 3.237201003086419560e-01 3.263990162037037068e-01 3.298148148148147829e-01 4.224117476851851904e-01 3.314973958333333193e-01 3.228795331790123568e-01 3.266440007716049365e-01 3.303086419753086811e-01 3.383251350308641991e-01 3.415480324074073870e-01 3.482783564814814770e-01 3.399165702160493741e-01 3.415673225308642480e-01 3.364834104938271842e-01 3.346706211419753219e-01 3.384326774691358009e-01 3.401408179012345712e-01 3.429581404320987681e-01 3.471368634259259234e-01 3.461906828703703587e-01 3.489409722222222010e-01 3.497709297839506348e-01 3.509273726851851460e-01 3.493426890432098642e-01 3.519097222222222210e-01 3.520452353395061573e-01 3.556529706790123591e-01 3.574320023148148118e-01 3.679812885802468680e-01 3.633150077160493541e-01 3.644830246913580152e-01 3.668841628086419449e-01 3.648736496913579930e-01 4.530140817901234240e-01 3.571600115740741210e-01 3.551871141975308510e-01 3.549146412037036957e-01 3.568971836419753130e-01 3.638802083333333437e-01 3.616440007716049121e-01 3.634669174382715862e-01 3.673288001543210113e-01 3.715697337962963198e-01 3.656071566358024549e-01 3.699281442901234951e-01 3.755377121913580640e-01 3.751697530864197550e-01 3.755618248456790154e-01 3.690813078703704120e-01 3.704976851851851660e-01 3.701784336419753352e-01 3.703833912037037268e-01 3.674247685185185186e-01 3.625482253086419471e-01 3.588454861111111116e-01 3.591859567901234951e-01 3.607556905864197638e-01 3.656833526234568033e-01 3.658376736111111360e-01 3.670355902777777679e-01 3.635300925925926130e-01 3.714322916666666918e-01 3.758333333333332971e-01 3.770442708333333059e-01 4.611197916666666674e-01 3.733203125000000289e-01 3.667047646604938427e-01 3.714048032407407662e-01 3.712249228395061440e-01 3.711173804012345978e-01 3.764052854938271797e-01 3.778968942901234640e-01 3.743118248456790420e-01 3.792443094135802273e-01 3.787615740740740700e-01 3.780584490740740988e-01 3.756447723765432012e-01 3.691324266975308799e-01 3.746551890432098797e-01 3.763922646604938582e-01 3.768933256172839474e-01 3.771407214506172778e-01 3.748398919753086478e-01 3.761120756172839363e-01 3.720563271604938049e-01 3.751803626543209758e-01 3.766319444444444220e-01 3.734085648148148251e-01 3.730227623456789932e-01 3.756968557098765427e-01 3.725135030864197838e-01 3.778317901234568010e-01 3.759620949074073959e-01 3.790856481481481577e-01 3.787639853395061706e-01 4.552483603395061640e-01 3.703313078703703853e-01 3.643137538580246693e-01 3.673398919753086411e-01 3.677797067901234507e-01 3.716073495370370572e-01 3.682740162037037024e-01 3.743542631172839252e-01 3.764154128086419360e-01 3.776191165123456983e-01 3.739298804012345379e-01 3.790615354938271508e-01 3.805372299382716039e-01 3.789617091049382602e-01 3.780145640432098775e-01 3.858338155864197150e-01 3.879846643518518601e-01 3.835079089506172600e-01 3.867158564814814903e-01 3.834312307098765582e-01 3.857243441358024771e-01 3.819227430555555691e-01 3.808468364197530875e-01 3.803877314814815280e-01 3.788281249999999600e-01 3.795389660493826978e-01 3.805174575617283894e-01 3.871344521604938582e-01 3.835320216049382669e-01 3.804547646604938271e-01 4.741420717592592093e-01 3.712336033950617287e-01 3.624074074074074003e-01 3.740620177469136109e-01 3.817235725308641969e-01 3.838594714506172734e-01 3.885190007716049498e-01 3.842004243827160659e-01 3.846349344135802650e-01 3.874117476851852149e-01 3.832388117283950790e-01 3.834635416666666852e-01 3.873244598765431812e-01 3.855261381172839230e-01 3.829118441358024261e-01 3.833314043209876121e-01 3.892033179012345800e-01 3.897540509259259101e-01 3.930357831790123879e-01 3.971262538580246915e-01 3.924792631172839830e-01 4.027864583333333193e-01 3.954441550925925641e-01 3.970891203703703631e-01 3.962876157407407840e-01 4.017346643518519000e-01 4.005642361111111382e-01 4.043672839506172734e-01 4.034244791666666829e-01 3.991984953703703320e-01 3.986077353395061640e-01 4.864158950617283872e-01 3.971035879629629672e-01 3.948799189814814481e-01 3.984452160493827111e-01 3.996117862654320896e-01 3.997381365740740877e-01 4.062562692901234840e-01 4.106365740740741122e-01 4.056418788580247181e-01 4.135141782407407152e-01 4.187861689814814659e-01 4.154861111111111116e-01 4.184775270061728558e-01 4.198398919753086322e-01 4.264891975308642280e-01 4.287456597222222276e-01 4.260387731481481421e-01 4.235517939814815169e-01 4.201355131172839208e-01 4.240596064814814992e-01 4.234399112654321229e-01 4.301774691358024594e-01 4.214612268518518889e-01 4.220746527777777812e-01 4.230459104938271708e-01 4.239443479938271309e-01 4.251104359567901558e-01 4.278819444444444398e-01 4.258858989197530920e-01 4.237736304012345578e-01 4.231876929012345911e-01 5.051200810185185741e-01 4.207566550925925797e-01 4.180854552469135399e-01 4.194695216049382780e-01 4.204084683641975406e-01 4.269825424382716061e-01 4.330758101851852060e-01 4.331785300925926063e-01 4.375313464506173089e-01 4.343123070987654488e-01 4.385855516975308843e-01 4.309379822530864379e-01 4.294092399691358253e-01 4.292660108024691223e-01 4.230266203703703654e-01 4.280555555555555780e-01 4.308063271604938294e-01 4.365528549382716172e-01 4.331949266975309021e-01 4.276461226851852038e-01 4.340750385802469302e-01 4.376789158950616931e-01 4.352488425925926108e-01 4.333825231481481799e-01 4.332489390432098797e-01 4.368002507716049476e-01 4.417047646604938538e-01 4.423586998456789932e-01 4.456129436728394899e-01 4.504595871913580352e-01 5.197366898148148007e-01 4.361168981481481910e-01 4.272400655864197483e-01 4.323070987654321073e-01 4.369285300925925819e-01 4.385460069444444553e-01 4.415229552469135399e-01 4.446749614197531009e-01 4.431756365740740500e-01 4.418200231481481111e-01 4.479962384259259522e-01 4.444478202160493940e-01 4.454673032407407418e-01 4.422878086419753108e-01 4.455309606481481222e-01 4.433723958333333770e-01 4.457957175925926219e-01 4.497164351851852260e-01 4.450125385802469191e-01 4.546884645061728403e-01 4.587355324074073870e-01 4.570302854938271819e-01 4.558752893518518423e-01 4.545090663580246826e-01 4.549869791666666941e-01 4.586525848765432012e-01 4.577271412037036691e-01 4.542091049382716017e-01 4.525342399691358319e-01 4.507407407407407751e-01 4.550255594135802495e-01 5.193407600308642680e-01 4.424344135802468769e-01 4.356389853395061240e-01 4.456134259259258990e-01 4.476697530864197638e-01 4.543489583333333304e-01 4.556495949074074181e-01 4.602628279320987170e-01 4.577888695987654133e-01 4.593258101851851460e-01 4.557315779320987859e-01 4.550009645061728336e-01 4.554914158950617020e-01 4.599720293209876298e-01 4.627372685185185408e-01 4.652348572530863868e-01 4.616811342592592737e-01 4.616131365740741010e-01 4.594622878086419560e-01 4.660243055555555181e-01 4.691999421296296213e-01 4.703457754629629672e-01 4.748249421296296680e-01 4.702319637345679371e-01 4.626779513888888973e-01 4.691290509259259389e-01 4.704890046296296147e-01 4.690350115740740677e-01 4.675675154320987348e-01 4.692881944444444731e-01 4.729041280864197949e-01 5.381838348765433100e-01 4.477242476851852060e-01 4.510923032407407329e-01 4.553192515432099019e-01 4.612374614197530809e-01 4.670341435185185186e-01 4.732798032407407041e-01 4.789014274691357764e-01 4.757711226851852326e-01 4.782556905864197572e-01 4.763286072530864557e-01 4.739226466049382691e-01 4.737205825617283872e-01 4.710426311728395099e-01 4.679697145061728070e-01 4.678655478395061240e-01 4.661516203703703898e-01 4.708159722222222121e-01 4.656004050925925952e-01 4.606457368827160392e-01 4.579041280864197261e-01 4.665412808641974940e-01 4.662673611111111116e-01 4.725371334876543039e-01 4.673099922839506482e-01 4.685918209876542839e-01 4.667187499999999600e-01 4.639549575617283872e-01 4.677676504629629251e-01 4.703944830246913900e-01 5.328935185185185164e-01 4.499889081790123257e-01 4.509326774691357897e-01 4.517881944444444020e-01 4.568012152777777835e-01 4.641242283950617331e-01 4.671021412037036913e-01 4.657426697530864246e-01 4.718296682098765404e-01 4.661684992283950391e-01 4.642607060185185430e-01 4.626292438271605301e-01 4.672376543209876831e-01 4.646156442901234751e-01 4.639057677469136109e-01 4.636511381172839230e-01 4.669618055555555536e-01 4.610638503086419981e-01 4.566126543209876321e-01 4.650414737654320896e-01 4.597878086419753263e-01 4.595220871913580640e-01 4.636164158950617509e-01 4.609321952160493896e-01 4.580801504629629650e-01 4.592385223765432234e-01 4.571378279320987281e-01 4.518716242283950524e-01 4.532706404320987481e-01 4.560590277777777923e-01 4.494637345679012297e-01 5.236275077160493785e-01 4.453751929012345623e-01 4.394319058641975029e-01 4.377980324074073892e-01 4.421672453703703320e-01 4.444048996913580463e-01 4.423828125000000000e-01 4.441618441358024527e-01 4.390697337962962687e-01 4.374300733024691357e-01 4.388855131172839652e-01 4.426461226851852171e-01 4.428501157407407351e-01 4.384751157407407729e-01 4.482595486111111138e-01 4.467153742283950790e-01 4.442722800925925641e-01 4.419859182098765382e-01 4.389019097222222610e-01 4.362364969135802406e-01 4.332465277777777790e-01 4.328776041666666519e-01 4.315475501543209469e-01 4.318499228395061840e-01 4.272665895061728558e-01 4.255208333333333481e-01 4.295167824074074270e-01 4.272270447530864268e-01 4.244868827160493963e-01 4.278592785493827155e-01 4.255844907407407840e-01 4.968909143518518423e-01 4.100139853395061706e-01 3.996479552469135998e-01 4.091295331790123502e-01 4.109211033950617153e-01 4.151605902777777968e-01 4.217230902777777679e-01 4.289424189814814992e-01 4.290022183641975517e-01 4.222907021604938582e-01 4.204933449074074181e-01 4.155304783950617420e-01 4.168132716049383069e-01 4.176297260802468991e-01 4.131090856481481333e-01 4.116319444444444531e-01 4.120428240740741099e-01 4.122434413580247092e-01 4.085440779320987370e-01 4.143349729938271553e-01 4.114438657407407662e-01 4.116739004629629828e-01 4.063966049382716217e-01 4.106843171296296058e-01 4.097627314814814570e-01 4.124975887345678771e-01 4.069598765432098642e-01 4.097019675925925863e-01 4.075294174382716461e-01 4.095211226851851460e-01 4.789660493827160304e-01 3.863753858024691068e-01 3.853452932098765382e-01 3.903366126543209580e-01 3.970842978395061618e-01 4.002883873456790087e-01 4.004210069444444353e-01 4.000024112654321229e-01 4.000810185185185164e-01 3.980584490740740611e-01 3.961294367283950679e-01 3.933063271604937960e-01 3.947415123456790020e-01 3.965509259259258901e-01 4.000376157407407041e-01 3.996498842592592360e-01 3.958468364197531009e-01 3.954195601851852038e-01 3.941290509259259278e-01 3.931259645061728203e-01 3.913425925925925752e-01 3.901282793209876476e-01 3.884452160493827022e-01 3.910556520061728158e-01 3.892380401234568077e-01 3.858748070987654266e-01 3.850858410493827599e-01 3.873668981481481199e-01 3.840031828703703853e-01 3.881703317901234462e-01 3.854827353395061662e-01 4.755738811728394966e-01 3.842399691358024949e-01 3.784225501543209691e-01 3.849353780864197550e-01 3.897048611111111338e-01 3.910542052469135887e-01 3.932716049382716239e-01 3.959056712962962798e-01 3.938623649691357920e-01 3.965914351851851927e-01 3.992274305555555403e-01 3.942607060185184809e-01 3.888840663580246937e-01 3.916493055555555491e-01 3.902657214506172756e-01 3.885923032407407329e-01 3.868465470679012252e-01 3.912432484567901492e-01 3.904084683641975140e-01 3.923746141975308910e-01 3.911144868827160503e-01 3.917317708333333259e-01 3.963483796296295991e-01 3.934331597222222032e-01 3.944839891975308599e-01 3.929769483024690979e-01 3.987442129629629739e-01 3.944907407407407529e-01 3.983391203703703920e-01 4.009379822530864113e-01 4.028004436728395143e-01 4.857195216049383091e-01 3.957735339506172623e-01 3.918388310185185186e-01 3.947796103395062040e-01 3.920317322530864068e-01 3.942626350308642280e-01 3.962557870370370661e-01 4.009678819444444930e-01 4.015842013888888951e-01 4.036246141975308732e-01 4.013368055555555647e-01 4.036275077160493829e-01 4.049729938271605101e-01 4.037832754629629428e-01 4.068383487654321229e-01 4.039404899691357853e-01 4.097275270061728203e-01 4.083608217592593070e-01 4.100207368827160637e-01 4.111776620370370394e-01 4.093161651234568099e-01 4.103833912037037068e-01 4.158738425925925797e-01 4.158410493827160437e-01 4.157016782407407240e-01 4.122328317901234329e-01 4.112413194444444198e-01 4.055835262345678927e-01 4.091565393518518667e-01 4.122492283950617287e-01 4.848963155864197683e-01 4.090027006172839430e-01 4.026007908950617331e-01 4.047217399691357964e-01 4.080203510802468680e-01 4.133555169753086456e-01 4.165412808641975051e-01 4.158010223765432056e-01 4.159862075617283828e-01 4.177242476851851793e-01 4.207961998456790087e-01 4.208820408950617042e-01 4.254499421296296102e-01 4.182605131172839608e-01 4.160136959876543084e-01 4.182841435185185031e-01 4.131495949074074359e-01 4.147087191358024838e-01 4.109620949074074270e-01 4.117091049382715640e-01 4.153342013888889350e-01 4.189482060185185097e-01 4.157870370370370661e-01 4.139525462962962976e-01 4.205304783950616909e-01 4.155570023148147940e-01 4.196629050925925752e-01 4.189954668209876498e-01 4.213122106481481111e-01 4.207031250000000111e-01 4.228554205246913278e-01 4.873394097222222276e-01 4.108285108024691268e-01 4.044806134259259500e-01 4.080811149691357942e-01 4.177536651234567966e-01 4.175149498456790509e-01 4.214520640432098952e-01 4.196373456790123413e-01 4.161029128086419782e-01 4.203539737654320985e-01 4.230661651234567944e-01 4.243590856481481710e-01 4.202922453703703543e-01 4.154591049382715950e-01 4.201306905864197749e-01 4.215576774691358053e-01 4.168238811728394722e-01 4.191150655864197550e-01 4.207740162037037490e-01 4.206602044753086078e-01 4.259500385802469369e-01 4.294343171296296502e-01 4.275930748456789887e-01 4.253563850308642036e-01 4.227570408950617198e-01 4.262765239197530698e-01 4.218479938271605389e-01 4.220153356481481377e-01 4.251986882716049521e-01 4.216039737654320718e-01 4.218050733024691357e-01 4.909693287037037446e-01 4.058294753086419959e-01 4.000091628086420159e-01 4.082060185185185097e-01 4.076552854938271797e-01 4.173143325617283961e-01 4.185836226851851749e-01 4.138310185185185008e-01 4.120389660493827266e-01 4.212123842592592760e-01 4.198369984567901225e-01 4.214250578703703787e-01 4.199083719135802140e-01 4.233497299382716350e-01 4.218942901234567500e-01 4.232494212962962798e-01 4.210103202160493940e-01 4.213633294753086900e-01 4.183998842592592249e-01 4.248389274691357631e-01 4.227690972222222232e-01 4.221016589506172978e-01 4.193499228395061729e-01 4.170365547839506304e-01 4.163469328703703898e-01 4.214626736111111160e-01 4.281862461419753130e-01 4.287827932098765560e-01 4.286525848765432301e-01 4.264375964506172401e-01 4.984755979938271242e-01 4.212880979938271597e-01 4.140957754629629450e-01 4.203202160493826889e-01 4.255434992283950724e-01 4.270765817901234773e-01 4.280478395061728669e-01 4.277835648148148318e-01 4.272067901234568033e-01 4.318320794753086611e-01 4.312143132716049210e-01 4.355483217592592271e-01 4.343831983024691312e-01 4.313845486111110850e-01 4.311709104938271642e-01 4.323374807098765427e-01 4.335561342592592626e-01 4.383444251543209824e-01 4.337707368827160570e-01 4.362934027777777835e-01 4.415750385802469369e-01 4.349715470679012541e-01 4.414313271604938249e-01 4.344241898148148429e-01 4.374614197530863891e-01 4.352382330246913900e-01 4.417476851851851460e-01 4.389612268518518490e-01 4.385898919753086211e-01 4.415571952160494140e-01 4.394516782407407729e-01 5.183564814814815014e-01 4.290316358024691690e-01 4.210238233024691801e-01 4.255584490740740300e-01 4.289559220679012297e-01 4.351509452160494118e-01 4.309119405864197949e-01 4.346971450617284072e-01 4.376273148148148162e-01 4.367390046296296680e-01 4.434153163580246693e-01 4.462307098765432301e-01 4.397849151234567988e-01 4.390142746913580640e-01 4.395867091049383002e-01 4.384153163580246648e-01 4.373196373456790242e-01 4.365972222222221921e-01 4.407749807098765293e-01 4.407807677469136043e-01 4.421826774691358097e-01 4.431823881172839430e-01 4.394878472222222276e-01 4.397545331790123080e-01 4.396561535493827000e-01 4.352213541666666852e-01 4.354398148148148073e-01 4.410175540123457139e-01 4.381587577160493963e-01 4.300877700617284360e-01 4.286511381172839474e-01 5.025781249999999867e-01 4.181240354938271508e-01 4.200327932098765760e-01 4.237934027777777724e-01 4.327309992283950302e-01 4.319926697530864224e-01 4.360021219135802317e-01 4.357282021604937938e-01 4.336005015432098930e-01 4.412760416666666741e-01 4.380685763888888529e-01 4.342853009259259323e-01 4.349156057098765293e-01 4.357976466049382491e-01 4.345273919753086522e-01 4.364313271604938760e-01 4.269449266975308688e-01 4.249604552469135599e-01 4.254716435185185164e-01 4.276533564814815058e-01 4.250708912037037268e-01 4.224619020061728403e-01 4.232499035493826889e-01 4.263054591049382780e-01 4.253342013888888884e-01 4.319782021604938183e-01 4.312842399691357853e-01 4.311593364197530698e-01 4.273008294753086189e-01 4.303636188271605101e-01 5.039747299382715262e-01 4.171995563271604923e-01 4.148509837962963132e-01 4.099295910493827022e-01 4.156404320987654444e-01 4.150395447530864090e-01 4.174016203703703742e-01 4.194637345679012030e-01 4.209312307098765360e-01 4.204499421296296058e-01 4.224300733024691223e-01 4.198032407407407129e-01 4.230000964506172578e-01 4.254214891975308666e-01 4.223152970679012741e-01 4.198157793209876809e-01 4.198008294753086678e-01 4.218576388888888862e-01 4.224426118827160348e-01 4.203621720679012741e-01 4.211385995370370283e-01 4.194849537037037002e-01 4.181534529320987681e-01 4.250602816358025060e-01 4.232219328703703543e-01 4.375906635802468969e-01 4.491685956790123502e-01 4.603211805555555980e-01
1.357191213348765402e+01 1.352255594135802497e+01 1.342445119598765402e+01 1.317449266975308753e+01 1.300407744984567948e+01 1.294463059413580375e+01 1.294442515432098695e+01 1.295106626157407348e+01 1.296673804012345776e+01 1.295787326388888872e+01 1.297232011959876630e+01 1.298132137345679027e+01 1.298364728009259217e+01 1.299503134645061664e+01 1.300928964120370424e+01 1.296891589506172870e+01 1.286076195987654280e+01 1.272787808641975360e+01 1.255932436342592595e+01 1.239501977237654451e+01 1.223383150077160586e+01 1.211867621527777850e+01 1.225742669753086389e+01 1.234814911265432080e+01 1.239462528935185226e+01 1.244384500385802461e+01 1.250386863425925910e+01 1.254582947530864168e+01 1.258963493441357961e+01 1.254143277391975353e+01 1.252841049382715966e+01 1.257694396219135768e+01 1.257216483410493879e+01 1.254483265817901305e+01 1.252126977237654337e+01 1.250380883487654415e+01 1.251997636959876559e+01 1.254921440972222157e+01 1.256052854938271501e+01 1.256790461033950557e+01 1.258243682484567927e+01 1.257734519675925888e+01 1.259936053240740783e+01 1.259312982253086410e+01 1.259034143518518611e+01 1.258872395833333258e+01 1.258255690586419817e+01 1.259435378086419632e+01 1.258348427854938301e+01 1.260663097993827186e+01 1.260797067901234669e+01 1.260180410879629598e+01 1.258268566743827144e+01 1.259272376543209937e+01 1.261404176311728342e+01 1.260793258101851855e+01 1.260105661651234499e+01 1.261781684027777750e+01 1.261133584104938343e+01 1.259724585262345720e+01 1.260089554398148159e+01 1.259861352237654231e+01 1.262598186728395078e+01 1.262227768132716044e+01 1.257168595679012313e+01 1.255280092592592567e+01 1.254834056712962997e+01 1.256184558256172856e+01 1.256149450231481524e+01 1.258581066743827037e+01 1.258910686728395056e+01 1.258532166280864217e+01 1.258506510416666657e+01 1.259307002314814738e+01 1.262158950617284070e+01 1.261472366898148145e+01 1.261646701388888836e+01 1.260278452932098858e+01 1.259699701003086503e+01 1.260556712962963033e+01 1.257930989583333314e+01 1.259020833333333300e+01 1.259987991898148074e+01 1.259202449845678906e+01 1.260212432484567913e+01 1.259972752700617171e+01 1.258777440200617370e+01 1.260059751157407426e+01 1.261289014274691311e+01 1.261429108796296283e+01 1.261303240740740783e+01 1.263716483410493829e+01 1.263710455246913611e+01 1.263287856867283843e+01 1.260740017361111143e+01 1.257696807484567891e+01 1.255230854552469033e+01 1.256414978780864189e+01 1.255757716049382644e+01 1.257431712962963033e+01 1.260236062885802433e+01 1.260254822530864161e+01 1.258833960262345641e+01 1.260447964891975303e+01 1.259152343749999936e+01 1.261397231867283963e+01 1.260895447530864288e+01 1.262854841820987772e+01 1.261247154706790141e+01 1.261552517361111114e+01 1.263208622685185212e+01 1.263909963348765331e+01 1.263936873070987588e+01 1.262015721450617356e+01 1.264439139660493971e+01 1.263784625771604908e+01 1.262521749614197475e+01 1.260815779320987673e+01 1.264188512731481495e+01 1.264300877700617320e+01 1.264859471450617256e+01 1.264456066743827201e+01 1.263644772376543202e+01 1.261568624614197454e+01 1.263370466820987659e+01 1.264038387345679126e+01 1.257671103395061785e+01 1.257609085648148195e+01 1.257566406249999957e+01 1.259891637731481495e+01 1.262418692129629783e+01 1.263087191358024697e+01 1.263500337577160515e+01 1.261884211033950720e+01 1.261142795138888850e+01 1.261947723765432094e+01 1.260951774691358018e+01 1.261161844135802390e+01 1.262341531635802561e+01 1.261283275462962905e+01 1.262378472222222214e+01 1.263204957561728392e+01 1.262800491898148003e+01 1.263617042824074055e+01 1.263243200231481467e+01 1.260523341049382573e+01 1.259804446373456877e+01 1.258891203703703709e+01 1.259947048611111065e+01 1.261163869598765430e+01 1.261062692901234605e+01 1.259933593749999936e+01 1.260597993827160579e+01 1.259567660108024612e+01 1.260627073688271693e+01 1.259304349922839528e+01 1.254941213348765494e+01 1.254066792052469204e+01 1.251862364969135832e+01 1.251635368441358054e+01 1.253943238811728378e+01 1.254724585262345649e+01 1.256175154320987808e+01 1.255938946759259345e+01 1.257989728009259345e+01 1.259543643904321009e+01 1.259114438657407398e+01 1.260488088348765423e+01 1.258933063271604880e+01 1.258806712962962848e+01 1.259096547067901284e+01 1.260908034336419625e+01 1.261268663194444528e+01 1.262327787422839442e+01 1.263775896990740755e+01 1.265076533564814909e+01 1.264217881944444422e+01 1.264412229938271537e+01 1.265284818672839506e+01 1.265098476080246925e+01 1.264131124614197610e+01 1.263938705632716086e+01 1.264902199074074041e+01 1.265147328317901376e+01 1.265947820216049280e+01 1.266097993827160550e+01 1.266778645833333350e+01 1.266688223379629719e+01 1.264401379243827073e+01 1.262630738811728470e+01 1.263098910108024775e+01 1.263324266975308596e+01 1.265167004243827265e+01 1.265526813271604922e+01 1.266890335648148103e+01 1.265368778935185290e+01 1.264126109182098823e+01 1.264248746141975310e+01 1.263849874614197510e+01 1.264871961805555500e+01 1.267001880787037038e+01 1.265450569058642039e+01 1.267258487654321009e+01 1.266794222608024612e+01 1.266972993827160465e+01 1.269340326003086439e+01 1.270968798225308660e+01 1.269390046296296326e+01 1.269120129243827222e+01 1.270468123070987687e+01 1.269692853009259181e+01 1.270920958719135818e+01 1.270158902391975353e+01 1.269699363425925931e+01 1.268767216435185219e+01 1.270572771990740790e+01 1.272512056327160579e+01 1.271204619984567863e+01 1.266552565586419732e+01 1.267964409722222285e+01 1.265470727237654280e+01 1.267843605324074119e+01 1.269318528163580240e+01 1.270927662037036932e+01 1.273107638888888893e+01 1.273578993055555664e+01 1.275370418595679034e+01 1.276455246913580233e+01 1.275484471450617363e+01 1.273634500385802326e+01 1.275000289351851812e+01 1.275811053240740733e+01 1.275570505401234556e+01 1.275556471836419625e+01 1.275720823688271466e+01 1.276428578317901241e+01 1.278443721064814831e+01 1.277351900077160529e+01 1.279337818287037187e+01 1.280762924382716150e+01 1.280570746527777715e+01 1.280092351466049472e+01 1.281602334104938201e+01 1.282491657021604858e+01 1.281987702546296326e+01 1.284448736496913668e+01 1.283516685956790049e+01 1.289043258101851741e+01 1.287368393132716093e+01 1.281420765817901142e+01 1.280056037808641811e+01 1.281726032021604844e+01 1.283933352623456692e+01 1.282112606095678942e+01 1.281942370756172878e+01 1.282498263888888879e+01 1.282610194830246897e+01 1.282407648533950528e+01 1.283558641975308490e+01 1.284914255401234406e+01 1.285076147762345578e+01 1.284325665509259373e+01 1.285742862654321073e+01 1.285172984182098688e+01 1.283988329475308632e+01 1.283996961805555515e+01 1.283223042052469154e+01 1.285857494212962848e+01 1.286677083333333194e+01 1.287008680555555529e+01 1.285335744598765473e+01 1.286937741126543244e+01 1.285046296296296298e+01 1.284394675925925888e+01 1.285416666666666607e+01 1.285607156635802362e+01 1.285781973379629584e+01 1.284767264660493780e+01 1.286085358796296241e+01 1.286433738425925988e+01 1.282950086805555578e+01 1.280772183641975204e+01 1.281541570216049308e+01 1.283433159722222250e+01 1.285724247685185162e+01 1.285525800540123420e+01 1.285497878086419732e+01 1.286538869598765444e+01 1.289224729938271530e+01 1.285247010030864168e+01 1.285080729166666735e+01 1.285781008873456877e+01 1.285824218750000014e+01 1.286655767746913526e+01 1.286612075617284034e+01 1.288548225308641904e+01 1.290342013888888850e+01 1.291680893132716079e+01 1.289349633487654323e+01 1.288281684027777807e+01 1.289490162037036924e+01 1.291351658950617320e+01 1.292145013503086304e+01 1.290307966820987673e+01 1.291978539737654330e+01 1.294596691743827144e+01 1.293815827546296227e+01 1.291985532407407433e+01 1.292578655478395078e+01 1.294312934027777828e+01 1.291318190586419767e+01 1.287955102237654259e+01 1.286156008873456713e+01 1.287759114583333364e+01 1.287359857253086304e+01 1.288092013888888765e+01 1.289613667052469204e+01 1.290380208333333378e+01 1.290311680169753039e+01 1.290117862654321002e+01 1.289960503472222086e+01 1.288888406635802397e+01 1.290835841049382715e+01 1.290653549382716037e+01 1.291844184027777764e+01 1.292996190200617335e+01 1.294997878086419796e+01 1.292935619212962983e+01 1.290803819444444400e+01 1.289915943287037159e+01 1.291892216435185148e+01 1.292344280478395113e+01 1.293362557870370289e+01 1.293134693287036896e+01 1.293207079475308596e+01 1.293111738040123448e+01 1.292567081404320994e+01 1.292990692515432016e+01 1.290041859567901206e+01 1.295583719135802525e+01 1.296806568287036932e+01 1.292538290895061692e+01 1.290142554012345677e+01 1.289402922453703759e+01 1.290005063657407369e+01 1.290373022762345734e+01 1.291988377700617363e+01 1.295115403163580403e+01 1.295760271990740797e+01 1.295147858796296170e+01 1.295173900462962813e+01 1.294417920524691290e+01 1.293706066743827066e+01 1.296338831018518611e+01 1.295739872685185290e+01 1.296844087577160387e+01 1.297283082561728307e+01 1.296385464891975303e+01 1.297335599922839577e+01 1.296846064814814881e+01 1.297573832947530903e+01 1.297360628858024612e+01 1.296861255787037059e+01 1.296587480709876594e+01 1.299592496141975317e+01 1.297937355324074105e+01 1.297012297453703766e+01 1.299864486882716186e+01 1.301524980709876544e+01 1.301422935956790106e+01 1.300765576774691290e+01 1.302895881558641911e+01 1.299890335648148110e+01 1.300653694058641996e+01 1.300671248070987751e+01 1.300148485725308589e+01 1.299181761188271622e+01 1.300394772376543173e+01 1.301308979552469225e+01 1.301488184799382708e+01 1.299119936342592574e+01 1.299994984567901213e+01 1.301421151620370509e+01 1.302256703317901376e+01 1.303568817515432166e+01 1.303720679012345585e+01 1.305071662808641975e+01 1.304853105709876537e+01 1.305653211805555536e+01 1.305934606481481453e+01 1.305274594907407426e+01 1.306925781250000007e+01 1.306487654320987701e+01 1.307005256558641904e+01 1.309107542438271565e+01 1.309933400848765395e+01 1.308021797839506029e+01 1.308985628858024697e+01 1.309053433641975239e+01 1.308787181712962955e+01 1.317685667438271579e+01 1.314923707561728428e+01 1.311582175925925853e+01 1.308857204861111079e+01 1.307911892361111050e+01 1.306700617283950550e+01 1.305226900077160579e+01 1.306199604552469040e+01 1.307014274691358047e+01 1.308421006944444365e+01 1.308631799768518533e+01 1.310304832175925860e+01 1.310826533564814866e+01 1.311098620756172828e+01 1.310982156635802554e+01 1.309878809799382715e+01 1.313600115740740826e+01 1.312221305941358018e+01 1.311398533950617207e+01 1.310302903163580268e+01 1.308730227623456877e+01 1.309699556327160508e+01 1.308445312499999957e+01 1.310409143518518604e+01 1.312346209490740634e+01 1.312005594135802511e+01 1.313993441358024761e+01 1.311038290895061742e+01 1.312524932484567763e+01 1.312135609567901184e+01 1.309893422067901270e+01 1.320167341820987517e+01 1.316088493441358054e+01 1.312824025848765430e+01 1.309845486111110979e+01 1.308638937114197454e+01 1.309283709490740755e+01 1.310277006172839442e+01 1.310883535879629491e+01 1.312396749614197411e+01 1.312179542824074119e+01 1.310615162037036896e+01 1.311037278163580311e+01 1.313563078703703724e+01 1.312097800925925917e+01 1.312288097993827130e+01 1.312690827546296291e+01 1.310517505787036896e+01 1.311712191358024704e+01 1.310129533179012284e+01 1.310576726466049280e+01 1.310640287422839556e+01 1.314115885416666707e+01 1.311103298611111079e+01 1.312908998842592467e+01 1.311401475694444407e+01 1.312501446759259238e+01 1.313019579475308518e+01 1.314653742283950599e+01 1.315369116512345649e+01 1.313243778935185091e+01 1.314385271990740733e+01 1.321299720293209923e+01 1.317983410493827101e+01 1.311502363040123420e+01 1.312610484182098780e+01 1.310272280092592467e+01 1.310037905092592503e+01 1.310197916666666806e+01 1.311792582947530938e+01 1.311901765046296298e+01 1.314240065586419703e+01 1.314341386959876701e+01 1.313551504629629640e+01 1.313050684799382672e+01 1.314332706404321094e+01 1.314516396604938109e+01 1.314112702546296241e+01 1.314043836805555543e+01 1.314361593364197489e+01 1.315514467592592496e+01 1.316979552469135939e+01 1.315874951774691404e+01 1.316740885416666806e+01 1.319882523148148223e+01 1.317906925154321129e+01 1.317227768132716115e+01 1.317787953317901284e+01 1.319474971064814817e+01 1.318703944830246932e+01 1.313718074845679062e+01 1.317633198302469033e+01 1.324917197145061820e+01 1.322137490354938372e+01 1.316975694444444400e+01 1.311347222222222086e+01 1.312215808256172878e+01 1.311006221064814881e+01 1.312565152391975332e+01 1.314085744598765437e+01 1.313165991512345698e+01 1.313237461419753060e+01 1.314518614969135868e+01 1.313348668981481460e+01 1.313997010030864132e+01 1.315636670524691354e+01 1.315445264274691439e+01 1.316864342206790006e+01 1.315985821759259267e+01 1.316685378086419789e+01 1.314680603780864132e+01 1.316386091820987581e+01 1.316703221450617356e+01 1.316038194444444365e+01 1.315922935956790063e+01 1.315701244212962884e+01 1.316974585262345698e+01 1.315947096836419661e+01 1.317436824845679055e+01 1.317138599537037003e+01 1.313363811728395092e+01 1.314452449845678927e+01 1.315409481095679034e+01 1.323652777777777878e+01 1.321837046682098915e+01 1.315124421296296298e+01 1.314089554398148074e+01 1.313478732638888857e+01 1.310911120756172998e+01 1.313813271604938215e+01 1.311883632330246918e+01 1.312387008101851826e+01 1.311032744984567877e+01 1.312661651234567906e+01 1.312634886188271466e+01 1.314196325231481488e+01 1.315526523919753110e+01 1.314268566743827193e+01 1.313902343750000057e+01 1.312352430555555571e+01 1.312572530864197518e+01 1.313153645833333449e+01 1.312931520061728463e+01 1.313293161651234442e+01 1.315026909722222115e+01 1.314861159336419760e+01 1.312019627700617264e+01 1.313693190586419668e+01 1.315070505401234513e+01 1.316381847993827137e+01 1.315825376157407334e+01 1.313962191358024612e+01 1.314889708719135797e+01 1.315089409722222236e+01 1.324705295138888950e+01 1.321873070987654231e+01 1.315237509645061742e+01 1.310852527006172963e+01 1.312891734182098880e+01 1.311031394675925910e+01 1.311594087577160472e+01 1.311967206790123441e+01 1.312057146990740719e+01 1.311521604938271501e+01 1.312881558641975310e+01 1.309422453703703759e+01 1.308418836805555507e+01 1.311282166280864203e+01 1.314179108796296269e+01 1.313719859182098659e+01 1.313008294753086425e+01 1.313353973765432237e+01 1.310786795910493829e+01 1.309586226851851798e+01 1.311096836419753053e+01 1.312834394290123363e+01 1.313116222993827265e+01 1.313140142746913597e+01 1.312178288966049422e+01 1.310922116126543280e+01 1.313197241512345670e+01 1.310676311728395049e+01 1.311268711419753075e+01 1.311216483410493971e+01 1.314162663966049216e+01 1.313375530478394992e+01 1.309149257330246918e+01 1.305643132716049415e+01 1.302760657793209909e+01 1.303016734182098624e+01 1.301979021990740826e+01 1.303672357253086389e+01 1.303222559799382729e+01 1.303307918595679027e+01 1.303865162037036995e+01 1.305091531635802582e+01 1.305791425540123463e+01 1.304516444830247046e+01 1.305603250385802561e+01 1.304644434799382680e+01 1.304673755787037059e+01 1.303717833719135832e+01 1.304098524305555529e+01 1.304216676311728307e+01 1.303038290895061735e+01 1.302390673225308682e+01 1.302247202932098880e+01 1.300519675925925789e+01 1.302980565200617313e+01 1.301313319830246940e+01 1.301842785493827037e+01 1.302206211419753146e+01 1.301662712191358118e+01 1.302078510802469147e+01 1.299881896219135768e+01 1.304239342206790120e+01 1.302318672839506064e+01 1.299534963348765437e+01 1.296052517361111178e+01 1.296302565586419853e+01 1.297410927854938301e+01 1.297332899305555642e+01 1.299530381944444457e+01 1.298863956404321129e+01 1.299030381944444557e+01 1.297463155864197581e+01 1.298599054783950635e+01 1.296533468364197539e+01 1.298263261959876580e+01 1.296145254629629662e+01 1.296230661651234506e+01 1.295326774691358018e+01 1.299720920138888935e+01 1.300347222222222143e+01 1.299135609567901284e+01 1.296669704861111150e+01 1.297566888503086346e+01 1.298500578703703745e+01 1.298545572916666657e+01 1.296901861496913533e+01 1.296213396990740740e+01 1.300124228395061721e+01 1.300228684413580282e+01 1.297917438271604951e+01 1.296847897376543202e+01 1.296330005787037187e+01 1.300894241898148174e+01 1.298951967592592638e+01 1.295192177854938365e+01 1.292739342206790099e+01 1.291995659722222278e+01 1.291745707947530875e+01 1.292221064814814824e+01 1.290597415123456848e+01 1.294688319830246925e+01 1.297516685956790106e+01 1.296490837191358025e+01 1.297621720679012292e+01 1.297779272762345748e+01 1.296659722222222122e+01 1.298108796296296319e+01 1.296664592978395092e+01 1.298229793595679027e+01 1.296607108410493936e+01 1.297508246527777764e+01 1.300677662037037052e+01 1.299975260416666778e+01 1.298442226080246975e+01 1.297746624228395085e+01 1.298395929783950642e+01 1.299250771604938315e+01 1.299372444058641918e+01 1.298477527006172849e+01 1.299907793209876594e+01 1.298724344135802511e+01 1.299752700617283985e+01 1.307082320601851855e+01 1.305914882330247018e+01 1.300593894675925988e+01 1.296861400462962877e+01 1.297575327932098688e+01 1.296900800540123555e+01 1.296922839506172842e+01 1.296966869212963047e+01 1.298121479552469104e+01 1.298722945601851997e+01 1.299785349151234470e+01 1.300394627700617356e+01 1.301449218750000014e+01 1.301989583333333300e+01 1.301498360339506100e+01 1.302300106095679055e+01 1.300658757716049507e+01 1.300895061728395063e+01 1.300782214506172707e+01 1.299599054783950614e+01 1.300824652777777857e+01 1.302712770061728342e+01 1.302952353395061635e+01 1.302096209490740719e+01 1.302387056327160586e+01 1.303952305169753068e+01 1.302854986496913625e+01 1.303249951774691340e+01 1.305736786265432237e+01 1.304388840663580140e+01 1.304408275462962941e+01 1.314978009259259295e+01 1.309255063657407447e+01 1.304491222993827293e+01 1.302244839891975303e+01 1.299350694444444443e+01 1.299545669367283907e+01 1.298763117283950663e+01 1.299441165123456798e+01 1.299742573302469140e+01 1.300812451774691247e+01 1.300439814814814810e+01 1.302938030478395071e+01 1.304387297453703631e+01 1.303101900077160558e+01 1.302315200617283963e+01 1.304819058641975360e+01 1.304242139274691326e+01 1.306715808256172906e+01 1.306352768132716058e+01 1.306507040895061600e+01 1.306868730709876480e+01 1.303586612654321009e+01 1.304901765046296269e+01 1.304214457947530903e+01 1.305700231481481488e+01 1.305790605709876573e+01 1.306821373456790170e+01 1.308122926311728307e+01 1.306049382716049401e+01 1.303672357253086389e+01 1.304593894675926080e+01 1.319261477623456713e+01 1.314366271219135740e+01 1.308352237654320938e+01 1.304237172067901085e+01 1.303633969907407497e+01 1.304233410493827172e+01 1.305553867669753210e+01 1.304736834490740627e+01 1.306648533950617264e+01 1.307574508101851940e+01 1.306176070601851968e+01 1.306106722608024739e+01 1.305505642361111107e+01 1.305365547839506135e+01 1.305574170524691446e+01 1.307101948302469197e+01 1.306762538580247046e+01 1.305591628086419753e+01 1.307192274305555557e+01 1.307341772762345578e+01 1.307837866512345748e+01 1.307781153549382758e+01 1.307149112654320966e+01 1.308566599151234477e+01 1.308215133101851890e+01 1.307374951774691318e+01 1.308379002700617200e+01 1.306063609182098695e+01 1.305435812114197525e+01 1.309067756558641982e+01 1.318599971064814902e+01 1.316021604938271494e+01 1.310159384645061742e+01 1.306680362654321037e+01 1.306340760030864168e+01 1.303846113040123456e+01 1.303896942515432045e+01 1.305717351466049436e+01 1.307554060570987708e+01 1.306029755015432237e+01 1.308551022376543216e+01 1.307216628086419696e+01 1.307773341049382765e+01 1.306013069058641918e+01 1.308022135416666742e+01 1.308664785879629555e+01 1.307073302469135712e+01 1.306466290509259309e+01 1.308023003472222179e+01 1.309359664351851826e+01 1.308932725694444521e+01 1.310728539737654330e+01 1.309820312500000128e+01 1.310195698302469225e+01 1.310427806712962884e+01 1.311335455246913639e+01 1.309761574074073920e+01 1.309846257716049323e+01 1.309974151234567863e+01 1.309234085648148138e+01 1.311418595679012356e+01 1.321930989583333194e+01 1.317897135416666643e+01 1.310420138888888886e+01 1.309842785493827222e+01 1.308193528163580233e+01 1.308338059413580368e+01 1.310914110725308745e+01 1.312342640817901085e+01 1.312315248842592652e+01 1.311214554398148202e+01 1.310792968750000043e+01 1.313197482638888935e+01 1.313153452932098730e+01 1.314070698302469076e+01 1.312801456404321065e+01 1.312908371913580297e+01 1.312877845293209766e+01 1.315217013888888964e+01 1.312720052083333222e+01 1.313892216435185212e+01 1.313621334876543223e+01 1.312863715277777743e+01 1.312368634259259181e+01 1.314087094907407405e+01 1.312888020833333336e+01 1.314995225694444336e+01 1.315106433256172735e+01 1.316074797453703660e+01 1.314257233796296198e+01 1.314883101851851777e+01 1.314514419367283971e+01 1.321895495756172778e+01 1.317264901620370310e+01 1.314177276234567948e+01 1.310822193287037152e+01 1.308773003472222207e+01 1.310361304012345585e+01 1.311583815586419632e+01 1.313733555169753053e+01 1.310789158950617228e+01 1.310380979938271651e+01 1.311257040895061721e+01 1.310347704475308639e+01 1.310295476466049358e+01 1.310624373070987581e+01 1.312110532407407426e+01 1.312830825617283814e+01 1.311162471064814738e+01 1.311293258101851933e+01 1.314008294753086403e+01 1.313544319058641996e+01 1.314361641589506213e+01 1.313487461419753011e+01 1.314674238040123555e+01 1.314311342592592524e+01 1.314283902391975367e+01 1.314376591435185126e+01 1.312931086033950656e+01 1.312935956790123448e+01 1.312514322916666742e+01 1.312784143518518576e+01 1.323852092978395056e+01 1.318593605324074147e+01 1.313209490740740826e+01 1.309709924768518441e+01 1.311951822916666721e+01 1.310839602623456912e+01 1.313814621913580183e+01 1.313241705246913504e+01 1.313018566743827265e+01 1.313345389660493900e+01 1.312701726466049479e+01 1.313556568287037152e+01 1.311636670524691439e+01 1.310625144675925924e+01 1.312565007716049337e+01 1.313966483410493780e+01 1.315512586805555628e+01 1.313154031635802532e+01 1.312879388503086275e+01 1.314892650462962997e+01 1.313414158950617328e+01 1.314999276620370416e+01 1.312873360339506235e+01 1.314828607253086368e+01 1.315050540123456813e+01 1.317696518132716044e+01 1.318049720293209859e+01 1.319444106867284106e+01
