1.996714723186728406e+02 1.996714723186728406e+02 1.996654885223765348e+02 1.996260609567901270e+02 1.994547236689814724e+02 1.993922535686728281e+02 1.993704489776234539e+02 1.994127305169753015e+02 1.994828978587962922e+02 1.995831597222222342e+02 1.997112755594135933e+02 1.998588136574074099e+02 2.000151885609568012e+02 2.001457315779321107e+02 2.002611159336419746e+02 2.003597882908950680e+02 2.003712934027777806e+02 2.003037798996913637e+02 2.001598152970678939e+02 2.000402203896605045e+02 1.999729962384259352e+02 1.998988970871913580e+02 1.997821002121913807e+02 1.996819989390432113e+02 2.003516623263888903e+02 2.012562442129629687e+02 2.013595423418209975e+02 2.014156061921296157e+02 2.015023119212962968e+02 2.016284852430555645e+02 2.017651374421296282e+02 2.019109095293209748e+02 2.023334085648148175e+02 2.023264935378086307e+02 2.023440774498456847e+02 2.023486289544752879e+02 2.023785373263888800e+02 2.024174074074074099e+02 2.024549749228395115e+02 2.025170524691357912e+02 2.025933478009259261e+02 2.026594111689814781e+02 2.027273466435185014e+02 2.027868894675926015e+02 2.028441874035493697e+02 2.029148398919753049e+02 2.029647554976851893e+02 2.030101282793209805e+02 2.030292853009259204e+02 2.030233429783950498e+02 2.030324773341049536e+02 2.030591251929012344e+02 2.030897617669753288e+02 2.031206809413580174e+02 2.031843200231481319e+02 2.032563840663580379e+02 2.033256182484567773e+02 2.034042693865740716e+02 2.034777165316358207e+02 2.035530608603395137e+02 2.036231018518518567e+02 2.036915383873456733e+02 2.037620572916666788e+02 2.041561265432098651e+02 2.041582537615740875e+02 2.041724763695987690e+02 2.041877710262345431e+02 2.042223514660493890e+02 2.042762557870370586e+02 2.043401046489197483e+02 2.044003361304012287e+02 2.044781925154320845e+02 2.045566271219135785e+02 2.046528583140432147e+02 2.047504774305555486e+02 2.048436800733024654e+02 2.049123514660493584e+02 2.050035691550925776e+02 2.050530574845679155e+02 2.050730758101851734e+02 2.050967312885802301e+02 2.051147897376543199e+02 2.051498384452160622e+02 2.051905989583333110e+02 2.052604513888888960e+02 2.053460233410493743e+02 2.054189380787036896e+02 2.055014559220678905e+02 2.055971508487654376e+02 2.056990629822530821e+02 2.057885493827160417e+02 2.058693050733024847e+02 2.059403033371913807e+02 2.060251552854938097e+02 2.063566010802469179e+02 2.063964250578703741e+02 2.064564477237654216e+02 2.065269454089506098e+02 2.065867988040123464e+02 2.066546460262345590e+02 2.067327001350308535e+02 2.068210778356481399e+02 2.069307764274691408e+02 2.070166179591049342e+02 2.071328544560185208e+02 2.072472294560185162e+02 2.073521633873456835e+02 2.074526765046296362e+02 2.075429031635802346e+02 2.076453067129629630e+02 2.077340451388888880e+02 2.077998905285493834e+02 2.078396990740740762e+02 2.078644328703703650e+02 2.079097029320987531e+02 2.079701779513888766e+02 2.080387336033950874e+02 2.081169077932098617e+02 2.081969463734567967e+02 2.082854986496913625e+02 2.083636988811728372e+02 2.084426986882716051e+02 2.085264940200617332e+02 2.060497487461419723e+02 2.021538922646604988e+02 1.972492708333333269e+02 1.972827319637345624e+02 1.972944077932098708e+02 1.973328197337962990e+02 1.973852787422839583e+02 1.974464949845678916e+02 1.974727666859567705e+02 1.974935720486110995e+02 1.975469695216049502e+02 1.976221981095679041e+02 1.976808738425926038e+02 1.977549845679012321e+02 1.978146918402777885e+02 1.978735503472222206e+02 1.979595298032407413e+02 1.980393012152777885e+02 1.981020896026234652e+02 1.981311684992284086e+02 1.981350250771604919e+02 1.981502459490740762e+02 1.981816044560185048e+02 1.982383743248456938e+02 1.983002006172839629e+02 1.983611323302469032e+02 1.984386381172839435e+02 1.984660841049382611e+02 1.984670939429012435e+02 1.984572829861111245e+02 1.984618369020061550e+02 1.984677517361110972e+02 1.984636964699074042e+02 1.984822617669753129e+02 1.985217795138889016e+02 1.985918817515432124e+02 1.986898027584876445e+02 1.987544733796296157e+02 1.988032011959876684e+02 1.988518320794753151e+02 1.989095158179012230e+02 1.989869174382716039e+02 1.990675347222222342e+02 1.991708048804012208e+02 1.992821696566358014e+02 1.993854885223765336e+02 1.994682860725308728e+02 1.995473066165123441e+02 1.995894429976851825e+02 1.995938213734567910e+02 1.995854258294752981e+02 1.996244357638888971e+02 1.997201871141975289e+02 1.998642197145061914e+02 1.999066087962962968e+02 1.999751827739197552e+02 2.000509905478395183e+02 2.001525496720678916e+02 2.002662041859567807e+02 2.003978472222222251e+02 2.005223543595678848e+02 2.006238570601851734e+02 2.007142351466049490e+02 2.009271026234567898e+02 2.009689583333333474e+02 2.010130565200617241e+02 2.011021156442901088e+02 2.011801388888888766e+02 2.012642925347222160e+02 2.013444507137345738e+02 2.013731568287036851e+02 2.013734736689814895e+02 2.013900327932098833e+02 2.014146069637345704e+02 2.014466984953703843e+02 2.014507465277777669e+02 2.014667669753086443e+02 2.015229571759259386e+02 2.015687842399691476e+02 2.016244381751543244e+02 2.016857986111111245e+02 2.017419396219135876e+02 2.017852396797839560e+02 2.018479841820987701e+02 2.018896768904320993e+02 2.019366874035493993e+02 2.019820953896604863e+02 2.020454060570987735e+02 2.020855758101851904e+02 2.021121711033950703e+02 2.021038083526234459e+02 2.020887331211419564e+02 2.020420944251543176e+02 2.020076924189814633e+02 2.019232378472222251e+02 2.019404904513888823e+02 2.019278303433641781e+02 2.019061395640432295e+02 2.018946141975308421e+02 2.019200911458333110e+02 2.019547391010802357e+02 2.019924811921296453e+02 2.020280000964506257e+02 2.020743364197530809e+02 2.021305140817901247e+02 2.022119748263888823e+02 2.023033791473765461e+02 2.023741251929012321e+02 2.024496494020061732e+02 2.025209929591049445e+02 2.026050009645061607e+02 2.026865702160493754e+02 2.027535643325617229e+02 2.027642978395061846e+02 2.027643460648148164e+02 2.027545563271604863e+02 2.027619420331790252e+02 2.027797246334876604e+02 2.028143055555555634e+02 2.028663869598765359e+02 2.029367660108024722e+02 2.030089265046296418e+02 2.030627377507716176e+02 2.031277387152777862e+02 2.031986791087962843e+02 2.034292901234567807e+02 2.034511014660493800e+02 2.034476075424382771e+02 2.034960648148148152e+02 2.035579769483024677e+02 2.036225612461419701e+02 2.036764361496913693e+02 2.037480266203703536e+02 2.038365933641975403e+02 2.039289935378086511e+02 2.039656013695987724e+02 2.039657007137345488e+02 2.039684809027777703e+02 2.039867481674382645e+02 2.040014091435185151e+02 2.040144912229938257e+02 2.040332093942901395e+02 2.040612191358024745e+02 2.040940181327160587e+02 2.041602083333333155e+02 2.042135064621913614e+02 2.042938223379629505e+02 2.043866975308641827e+02 2.044576586612654410e+02 2.045262287808641872e+02 2.046155459104938359e+02 2.046912287808641793e+02 2.047561945408950521e+02 2.048309582368827364e+02 2.049223538773148050e+02 2.050922458526234493e+02 2.051353250385802482e+02 2.051598114390432102e+02 2.051439713541666663e+02 2.050885103202160451e+02 2.050527599344135865e+02 2.050314501350308660e+02 2.050323148148148107e+02 2.050153057484567967e+02 2.050144145447530946e+02 2.050303264853394865e+02 2.050428718171296509e+02 2.050752179783950453e+02 2.051087726658950601e+02 2.051458352623456847e+02 2.052084235146604954e+02 2.052657108410493834e+02 2.053400072337963138e+02 2.054065543016975255e+02 2.054842790316358219e+02 2.055756254822530877e+02 2.056561154513888710e+02 2.057373336226851848e+02 2.058231100501543267e+02 2.059009076003086420e+02 2.059624402006172943e+02 2.059501494984567955e+02 2.059120452353394910e+02 2.058843687307098662e+02 2.058872048611111154e+02 2.058811371527777681e+02 2.059998268711419769e+02 2.060126089891975312e+02 2.060238527199074099e+02 2.060545568094135831e+02 2.060856920331790150e+02 2.061017081404320948e+02 2.061018070023148141e+02 2.061045992476852007e+02 2.061156794945987656e+02 2.061368489583333314e+02 2.061597120949074053e+02 2.061849676890432193e+02 2.062012413194444491e+02 2.062249628665123566e+02 2.062458656442901201e+02 2.062662615740740648e+02 2.062866854745370233e+02 2.062482527970678916e+02 2.061594473379629733e+02 2.060421301118827273e+02 2.059608391203703661e+02 2.058966608796296214e+02 2.058419347993827273e+02 2.058066420717592564e+02 2.058118827160493822e+02 2.058337215470679098e+02 2.058534027777777737e+02 2.058385233410493811e+02 2.058239424189814883e+02 2.058050279706790207e+02 2.058138826195987576e+02 2.059631293402777885e+02 2.059879099151234527e+02 2.059891097608024779e+02 2.060067635995370381e+02 2.060179923804012390e+02 2.060495394483024540e+02 2.060668354552469168e+02 2.060407947530864021e+02 2.059708449074074110e+02 2.058980878665123555e+02 2.058272419945987792e+02 2.057726895254629653e+02 2.057434664351851836e+02 2.057010556520061755e+02 2.056876287615740750e+02 2.056895785108024484e+02 2.056894796489197574e+02 2.056881375385802357e+02 2.057257286844135820e+02 2.057489216820987679e+02 2.057771031057098696e+02 2.058334934413580299e+02 2.058696180555555486e+02 2.059169695216049547e+02 2.059431606867284188e+02 2.059814877507716062e+02 2.060387268518518624e+02 2.060141859567901292e+02 2.059436839313271719e+02 2.058614684606481262e+02 2.058825925925926015e+02 2.058752334104938200e+02 2.058461617476851870e+02 2.058339395254629665e+02 2.058543089313271821e+02 2.058859071180555702e+02 2.059114438657407504e+02 2.059487615740740694e+02 2.059763536844135672e+02 2.060084471450617229e+02 2.060619613233024836e+02 2.061169777199073962e+02 2.061781766010802528e+02 2.062226306905864135e+02 2.062701475694444468e+02 2.063096310763888823e+02 2.063472694830247178e+02 2.063709312307098855e+02 2.063497217399691408e+02 2.062738401813271594e+02 2.062064674961419826e+02 2.061554480131172795e+02 2.061198505015431977e+02 2.061029808063271673e+02 2.060872140239197279e+02 2.060923596643518465e+02 2.061134317129629778e+02 2.061263720100308774e+02 2.061548948688271707e+02 2.061747579089506246e+02 2.062134022955247019e+02 2.064025308641975300e+02 2.064133309220678996e+02 2.064221325231481501e+02 2.064623283179012390e+02 2.064908603395061846e+02 2.065383159722222217e+02 2.065770799575617502e+02 2.065718793402777749e+02 2.065477782600308672e+02 2.064934818672839469e+02 2.063699213927469032e+02 2.062841314621913398e+02 2.062270481288580299e+02 2.062048558063271457e+02 2.061891468942901326e+02 2.061989588155864226e+02 2.062037581983024950e+02 2.062232224151234448e+02 2.062326929012345431e+02 2.062483106674382611e+02 2.062725467785493834e+02 2.063219926697530866e+02 2.063587755594135729e+02 2.064154147376543165e+02 2.064653129822530957e+02 2.065348090277777828e+02 2.065871629050925833e+02 2.066346850887345852e+02 2.066723162615740819e+02 2.067253631365740603e+02 2.067442467206790297e+02 2.066940562307098617e+02 2.066689125192901031e+02 2.066215581597222126e+02 2.065895712770061721e+02 2.065752989969135740e+02 2.065696219135802494e+02 2.065696706211419666e+02 2.065785325038580140e+02 2.066025839120370335e+02 2.066096305941357798e+02 2.066386299189814792e+02 2.066831645447530832e+02 2.067311709104938302e+02 2.067956901041666526e+02 2.068477985146604965e+02 2.068921339699074053e+02 2.069407672646605079e+02 2.070169270833333428e+02 2.070558695023148061e+02 2.070396252893518465e+02 2.069748924575617366e+02 2.069236135223765416e+02 2.068743668016975050e+02 2.068400192901234504e+02 2.068091859567901167e+02 2.067935744598765382e+02 2.067983005401234493e+02 2.068142925347222274e+02 2.068249951774691340e+02 2.068318325617284188e+02 2.069698702739197529e+02 2.069663440393518385e+02 2.069644743441357946e+02 2.069794068287037021e+02 2.070340851658950498e+02 2.070762350501543381e+02 2.071017279128086557e+02 2.071280897955246871e+02 2.071487924382716130e+02 2.071606385030864317e+02 2.071447853973765518e+02 2.070967635995370415e+02 2.070219608410493777e+02 2.069319155092592553e+02 2.068663035300926083e+02 2.068285715663580220e+02 2.068138903356481535e+02 2.068051711998456881e+02 2.068156452546296293e+02 2.068228968942901247e+02 2.068220717592592450e+02 2.068153033371913807e+02 2.068241763117283938e+02 2.068352681327160383e+02 2.068622718942901031e+02 2.068913392168209953e+02 2.069394039351851688e+02 2.069825858410493993e+02 2.070197916666666629e+02 2.070464163773148130e+02 2.070870510223765564e+02 2.072822569444444412e+02 2.072929610339506326e+02 2.072290123456790241e+02 2.071202666859568069e+02 2.070210595100308524e+02 2.069420230516975323e+02 2.069021069637345533e+02 2.068689935378086489e+02 2.068445201581789945e+02 2.068345109953703798e+02 2.068481790123456676e+02 2.068575337577160269e+02 2.068616893325617241e+02 2.068575482253086193e+02 2.068687008101851745e+02 2.068787876157407482e+02 2.068930743634259386e+02 2.069259934413580027e+02 2.069474406828703650e+02 2.069686540316358219e+02 2.069992438271604840e+02 2.070192939814814679e+02 2.070468957368827319e+02 2.070767375578703593e+02 2.070931124614197643e+02 2.070612842399691260e+02 2.069785759066357969e+02 2.068880333719135933e+02 2.068112196180555600e+02 2.067661738040123396e+02 2.067433960262345636e+02 2.068633077739197574e+02 2.068837591628086443e+02 2.068993417245370381e+02 2.069251514274691317e+02 2.069467901234567933e+02 2.069776740933642145e+02 2.069987750771605022e+02 2.070438715277777817e+02 2.070878563850308467e+02 2.071264626736111154e+02 2.071894497492284017e+02 2.072502690972222297e+02 2.073284153163580186e+02 2.073853727816357946e+02 2.074423341049382543e+02 2.074656375385802676e+02 2.073759490740740716e+02 2.073154378858024529e+02 2.072765195794753197e+02 2.072615219907407322e+02 2.072707518325617286e+02 2.072859418402777862e+02 2.073031500771604954e+02 2.073416541280864180e+02 2.073683212770061743e+02 2.073920307677469168e+02 2.074119449266975153e+02 2.074493147183641781e+02 2.074958651620370347e+02 2.075613401813271821e+02 2.077589211998456733e+02 2.077728698881172988e+02 2.077741719714506416e+02 2.077672993827160326e+02 2.077742380401234641e+02 2.077469550540123464e+02 2.076405415702160440e+02 2.075010368441357969e+02 2.074170515046296259e+02 2.073776851851851859e+02 2.073547926311728418e+02 2.073494941165123464e+02 2.073708082561728645e+02 2.074137755594135797e+02 2.074444902584876331e+02 2.074790875771604988e+02 2.075217602237654262e+02 2.075664920910493834e+02 2.076078761574074178e+02 2.076603853202160508e+02 2.077025520833333303e+02 2.077604465663580129e+02 2.078094965277777817e+02 2.078666705246913580e+02 2.079139973958333201e+02 2.079596122685185264e+02 2.080017245370370347e+02 2.079600086805555748e+02 2.078580044367284074e+02 2.077576721643518738e+02 2.076998220486111109e+02 2.077409519675925935e+02 2.077379345100308683e+02 2.077201041666666583e+02 2.077075173611111154e+02 2.077094155092592587e+02 2.077238874421296373e+02 2.077507740162037067e+02 2.077629171489197688e+02 2.077887003279321050e+02 2.078118021797839674e+02 2.078382788387345670e+02 2.078717091049382759e+02 2.079186289544753095e+02 2.079580203510802505e+02 2.080194126157407482e+02 2.080828612075617343e+02 2.081274107831790161e+02 2.081515721450617207e+02 2.081157151813271469e+02 2.080311304012345488e+02 2.079469232253086375e+02 2.078871778549382725e+02 2.077998355516975266e+02 2.077032508680555338e+02 2.076393176118827171e+02 2.076119362461419655e+02 2.076119116512345784e+02 2.076071088927469077e+02 2.076145804398148300e+02 2.076169405864197586e+02 2.076138276427469123e+02 2.077203380594135922e+02 2.077426962770061607e+02 2.077511771797839515e+02 2.077566984953703582e+02 2.077921961805555497e+02 2.078199479166666777e+02 2.078352256944444605e+02 2.078599074074074053e+02 2.078695924961419621e+02 2.078407349537037021e+02 2.077779089506172738e+02 2.077359596836419655e+02 2.077156356095678973e+02 2.076944034529320788e+02 2.076719463734567910e+02 2.076679374035493879e+02 2.076609944058641872e+02 2.076871291473765382e+02 2.077006563464506144e+02 2.077301340663580334e+02 2.077598148148148312e+02 2.077977141203703582e+02 2.078396778549382589e+02 2.078875482253086489e+02 2.079438353587962922e+02 2.079694357638888960e+02 2.079791078317901167e+02 2.080000704089506200e+02 2.080028129822530900e+02 2.079538237847222319e+02 2.079543600501543210e+02 2.079351803626543074e+02 2.079006500771604919e+02 2.078817645640432090e+02 2.078632947530864215e+02 2.078519907407407459e+02 2.078625969328703604e+02 2.078804745370370313e+02 2.078936376350308421e+02 2.079063498263888903e+02 2.079218836805555384e+02 2.079451895254629505e+02 2.079749893904321141e+02 2.080040263310185367e+02 2.080399623842592405e+02 2.080543769290123350e+02 2.080713638117283892e+02 2.080887577160494004e+02 2.081133945794753117e+02 2.080957122878086238e+02 2.080373591820987826e+02 2.079513059413580436e+02 2.078707720871913693e+02 2.078082417052468998e+02 2.077645476466049388e+02 2.077313652584876422e+02 2.077107402584876752e+02 2.077054735725308774e+02 2.077168846450617252e+02 2.077279470486110995e+02 2.077330738811728281e+02 2.078737842399691260e+02 2.078907238618827193e+02 2.079031018518518579e+02 2.079306486304012367e+02 2.079742317708333417e+02 2.080174971064814997e+02 2.080590002893518431e+02 2.080857364004629630e+02 2.081283728780864237e+02 2.081698181905864260e+02 2.081726567322530741e+02 2.081078438464506064e+02 2.080323046875000159e+02 2.079747612847222342e+02 2.079265060763888755e+02 2.079028554205247019e+02 2.078922328317901247e+02 2.078887630208333519e+02 2.079119444444444298e+02 2.079286935763888948e+02 2.079387451774691442e+02 2.079394579475308831e+02 2.079631954089506110e+02 2.079853221450617298e+02 2.080124098186728645e+02 2.080593759645061596e+02 2.080892414158950601e+02 2.081340649112654262e+02 2.081679875578703900e+02 2.082049035493827205e+02 2.082330748456789991e+02 2.083775978973765461e+02 2.083855439814815043e+02 2.083108666087962888e+02 2.082219222608024722e+02 2.081530135995370472e+02 2.081079489776234652e+02 2.080818552276234641e+02 2.080609331597222251e+02 2.080507793209876581e+02 2.080608921682098753e+02 2.080886974344136036e+02 2.081134423225308581e+02 2.081143373842592723e+02 2.081315055941358025e+02 2.081531862461419564e+02 2.082064424189814815e+02 2.082527348572530741e+02 2.083085353973765450e+02 2.083511164158950635e+02 2.083942201967592496e+02 2.084400544945987690e+02 2.084853134645061914e+02 2.085344656635802494e+02 2.085580782214506144e+02 2.085006558641975403e+02 2.084388382523148096e+02 2.083807976466049183e+02 2.083463382523148084e+02 2.083192438271604772e+02 2.082973427854938393e+02 2.083611680169753129e+02 2.083845216049382714e+02 2.083700925925926128e+02 2.083604002700617457e+02 2.083664385609567660e+02 2.083819319058641781e+02 2.084023562885802505e+02 2.084248606288580277e+02 2.084526388888888846e+02 2.084905806327160462e+02 2.085375274884259227e+02 2.085812225115740546e+02 2.086326099537037067e+02 2.086723345871913580e+02 2.086999011381172693e+02 2.086850072337962843e+02 2.086300072337962774e+02 2.053386660879629630e+02 2.051524657600308785e+02 2.050442361111111040e+02 2.049991599151234709e+02 2.049635286458333212e+02 2.049594560185185230e+02 2.049624990354938348e+02 2.049634432870370233e+02 2.049697347608024529e+02 2.049795814043209816e+02 2.049967404513888880e+02 2.050135411844135831e+02 2.050424971064814770e+02 2.050836265432099026e+02 2.052224479166666526e+02 2.052378742283950714e+02 2.052673505015432340e+02 2.053030801504629608e+02 2.053226996527777715e+02 2.053167018711419871e+02 2.052580169753086352e+02 2.051819000771604919e+02 2.051226909722222160e+02 2.050773297646605045e+02 2.050574855324074122e+02 2.050341739004629460e+02 2.050228848379629767e+02 2.050242881944444662e+02 2.050331708140432170e+02 2.050299310378086375e+02 2.050301861496913602e+02 2.050379957561728475e+02 2.050561733217592462e+02 2.050871064814814986e+02 2.051212625385802255e+02 2.051615248842592507e+02 2.052177170138888869e+02 2.052604190779320845e+02 2.053199961419753095e+02 2.053795433063271503e+02 2.054365248842592564e+02 2.054895196759259193e+02 2.054782011959876797e+02 2.054089038387345738e+02 2.053180526620370472e+02 2.052925853587962877e+02 2.052940928819444366e+02 2.052787085262345670e+02 2.052587654320987838e+02 2.052327498070987701e+02 2.052435300925926072e+02 2.052364149305555543e+02 2.052349643132716039e+02 2.052549561149691328e+02 2.053091681134259261e+02 2.053787070794753049e+02 2.054460054976851779e+02 2.054968894675925810e+02 2.055537437307098969e+02 2.056173755787037010e+02 2.056073070987654319e+02 2.055644174382715903e+02 2.055162765239197427e+02 2.055020876736111290e+02 2.054371055169752935e+02 2.053096074459876377e+02 2.051912287808641793e+02 2.051075699266975221e+02 2.050574286265432136e+02 2.050305044367283926e+02 2.050032354359567819e+02 2.049924402006172954e+02 2.049976070601851745e+02 2.050029528356481308e+02 2.050161424575617275e+02 2.051903284143518533e+02 2.051792385223765507e+02 2.051598418209876797e+02 2.051314621913580254e+02 2.051033897569444662e+02 2.051019077932098753e+02 2.050937519290123419e+02 2.051186853780864112e+02 2.051371407214506064e+02 2.051622270447530809e+02 2.051712307098765393e+02 2.051231095679012526e+02 2.050267978395061732e+02 2.049107542438271707e+02 2.048213671875000159e+02 2.047677555941358207e+02 2.047418335262345579e+02 2.047191811342592587e+02 2.047094425154321016e+02 2.047256061921296464e+02 2.047524363425926026e+02 2.047679007523148300e+02 2.047911299189814827e+02 2.048352425733024802e+02 2.048696031057098708e+02 2.049167158564814883e+02 2.049710329861111120e+02 2.050254870756172636e+02 2.050748403742283870e+02 2.051338546489197654e+02 2.051825303819444457e+02 2.053658805941358025e+02 2.053104340277777737e+02 2.052181852816358116e+02 2.051210889274691169e+02 2.050461959876543290e+02 2.050036839313271457e+02 2.049650737847222217e+02 2.049630579668209975e+02 2.049690128279320902e+02 2.049941859567901190e+02 2.049938724922839413e+02 2.049870182291666652e+02 2.049852710262345852e+02 2.049948345871913489e+02 2.050036964699073962e+02 2.050183386381172852e+02 2.050358174189814804e+02 2.050655835262345477e+02 2.050901528742284086e+02 2.051175665509259147e+02 2.051545423418209850e+02 2.051527932098765348e+02 2.050775858410493697e+02 2.049433034336419723e+02 2.048409172453703491e+02 2.047692611882716278e+02 2.047174455054012299e+02 2.046953293788580197e+02 2.046744169560185185e+02 2.046821440972222206e+02 2.047100327932098764e+02 2.048716251929012344e+02 2.048714896797839629e+02 2.048759042245370381e+02 2.048981920331790150e+02 2.049308154899691488e+02 2.049695418595678973e+02 2.050189795524691476e+02 2.050678327546296202e+02
3.592065007716049507e+01 3.592065007716049507e+01 3.593020978009259636e+01 3.599333815586419405e+01 3.615080922067900815e+01 3.623602141203703297e+01 3.625176456404321357e+01 3.629565586419753487e+01 3.635183111496913710e+01 3.644539834104937626e+01 3.654855516975308660e+01 3.667447193287036811e+01 3.680829716435184906e+01 3.693767361111110858e+01 3.705416280864197631e+01 3.715527633101851990e+01 3.706901523919753316e+01 3.679557822145061863e+01 3.638459683641975317e+01 3.593482928240740648e+01 3.550576919367284034e+01 3.505386718749999631e+01 3.462333478009259125e+01 3.426234326774691397e+01 3.536551649305555856e+01 3.703407648533950436e+01 3.743309799382716108e+01 3.765101996527777573e+01 3.785327835648148209e+01 3.804094618055555799e+01 3.826557966820987389e+01 3.849978443287037067e+01 3.892296537422839720e+01 3.894229504243826767e+01 3.903135706018518647e+01 3.913165316358024626e+01 3.920695216049382736e+01 3.929219376929012242e+01 3.934357542438271338e+01 3.942692708333333940e+01 3.951694878472222427e+01 3.960198543595679155e+01 3.970043933256172863e+01 3.978878086419752691e+01 3.988503086419753174e+01 3.997195746527778226e+01 4.005836082175925839e+01 4.011479070216049791e+01 4.014286844135802568e+01 4.013503327546296617e+01 4.013720341435185190e+01 4.015115644290123242e+01 4.016634452160494106e+01 4.018835310570987929e+01 4.024892843364197148e+01 4.030907021604937768e+01 4.036835455246913540e+01 4.045406973379629534e+01 4.053764081790123441e+01 4.062182966820987673e+01 4.069206066743826966e+01 4.077589313271604965e+01 4.085704427083333456e+01 4.122168499228395433e+01 4.124698109567901128e+01 4.129185136959876701e+01 4.133357687114197887e+01 4.140178819444444258e+01 4.147646026234567529e+01 4.157432291666666657e+01 4.164280189043210356e+01 4.172247588734568069e+01 4.180943479938271423e+01 4.190174575617283637e+01 4.199635127314814298e+01 4.208301070601851990e+01 4.216977478780864175e+01 4.226356722608024796e+01 4.233739728009258840e+01 4.236568576388889085e+01 4.238953993055555713e+01 4.241139612268518988e+01 4.245343894675926322e+01 4.251176263503086261e+01 4.259699990354938137e+01 4.270208092206790695e+01 4.281112943672839322e+01 4.292560667438271338e+01 4.304789544753086261e+01 4.317574990354938791e+01 4.330334394290123612e+01 4.341504918981481609e+01 4.351105951003086147e+01 4.361006124614197432e+01 4.404223524305555060e+01 4.412940104166666799e+01 4.424283468364197347e+01 4.435657552083333144e+01 4.446057870370370324e+01 4.457490113811728349e+01 4.468737991898148465e+01 4.480250482253086375e+01 4.495728153935184679e+01 4.510160638503086261e+01 4.526172935956790155e+01 4.543070119598765899e+01 4.560092303240740819e+01 4.574767746913580169e+01 4.589716290509259267e+01 4.606113136574074218e+01 4.620482880015431704e+01 4.630544126157407447e+01 4.637262008101851762e+01 4.641144531249999972e+01 4.646284336419753203e+01 4.653352044753086147e+01 4.661647521219135371e+01 4.672792920524691596e+01 4.683182339891975232e+01 4.695439043209876928e+01 4.707867717978394495e+01 4.718266975308642230e+01 4.729154031635802369e+01 4.489488956404321129e+01 4.152392216435185190e+01 3.803400077160493709e+01 3.807649305555555941e+01 3.813673032407407248e+01 3.819528645833333513e+01 3.827869068287036924e+01 3.837275607638888886e+01 3.841937017746913341e+01 3.844463204089506547e+01 3.848407455632715823e+01 3.855265480324074190e+01 3.859861400462963132e+01 3.866934895833333030e+01 3.872943528163580851e+01 3.879333815586419831e+01 3.886955150462962649e+01 3.895137201003086602e+01 3.901187692901234527e+01 3.902961805555555941e+01 3.901886574074074332e+01 3.903114920910493879e+01 3.905663435570988185e+01 3.910923804012345784e+01 3.919016975308641548e+01 3.925214313271604993e+01 3.933897135416666657e+01 3.938128809799382424e+01 3.938217013888888829e+01 3.935854021990740392e+01 3.935600694444444514e+01 3.934809944058641662e+01 3.930497540509259125e+01 3.916217158564814582e+01 3.919351466049382537e+01 3.927305507330247281e+01 3.937940441743826625e+01 3.944976562499999773e+01 3.950462673611110631e+01 3.954435619212962649e+01 3.960245659722222200e+01 3.969919801311728946e+01 3.979734953703703582e+01 3.990719666280863720e+01 4.003380787037036725e+01 4.016496045524691993e+01 4.027350212191358025e+01 4.035951678240740392e+01 4.042607783564815094e+01 4.042946952160493623e+01 4.040102912808642088e+01 4.043444106867283949e+01 4.051027922453703667e+01 4.063585214120370637e+01 4.067443287037036725e+01 4.074353636188271821e+01 4.082489679783950720e+01 4.093167197145061209e+01 4.106831404320987389e+01 4.121817370756172494e+01 4.136780960648147953e+01 4.148214650848765928e+01 4.159768518518518476e+01 4.194946952160493936e+01 4.200455295138889511e+01 4.209799575617284262e+01 4.220292872299382481e+01 4.231148533950617008e+01 4.240747299382715596e+01 4.250517216435185475e+01 4.254438705632716022e+01 4.255855179398148636e+01 4.257828703703704321e+01 4.260443576388888687e+01 4.261356963734567671e+01 4.260892119984568183e+01 4.261880063657407192e+01 4.266555941358024739e+01 4.271634837962962905e+01 4.277604938271604595e+01 4.283684895833333428e+01 4.290312210648147584e+01 4.295019290123457267e+01 4.301980758101851876e+01 4.307098379629629648e+01 4.312908661265431931e+01 4.319839699074073991e+01 4.326719859182098560e+01 4.331907359182098816e+01 4.337547212577160138e+01 4.338020399305555941e+01 4.338005931712963559e+01 4.331566020447530718e+01 4.325505256558641776e+01 4.303621141975308007e+01 4.307871286651234755e+01 4.306241946373456386e+01 4.303262056327160678e+01 4.300760416666666686e+01 4.302878954475308149e+01 4.306037663966049678e+01 4.309333622685185361e+01 4.312865113811728435e+01 4.317754822530864089e+01 4.323688078703703752e+01 4.332943287037036839e+01 4.342658661265431874e+01 4.351275462962963303e+01 4.360197723765431732e+01 4.369995804398148209e+01 4.380363088348765643e+01 4.390400414737653989e+01 4.397999469521604965e+01 4.399918161651234527e+01 4.398594762731481467e+01 4.396821373456789672e+01 4.395682146990741046e+01 4.396902343749999886e+01 4.399301601080247082e+01 4.404223910108024853e+01 4.411683207947530860e+01 4.419209780092592155e+01 4.425136670524691596e+01 4.431827690972222200e+01 4.440499758873456670e+01 4.472102768132715767e+01 4.475783902391975744e+01 4.479110001929012697e+01 4.485927420910493879e+01 4.493593412422839606e+01 4.502144965277778255e+01 4.510635995370370210e+01 4.520156876929011958e+01 4.531947820216049649e+01 4.543760802469135740e+01 4.549391637731481808e+01 4.550120659722222172e+01 4.549436631944444542e+01 4.550317322530864317e+01 4.551374373070987644e+01 4.553242669753086602e+01 4.554459104938271707e+01 4.557152199074074161e+01 4.560681568287036924e+01 4.568037760416667226e+01 4.573960503472222427e+01 4.582622829861111313e+01 4.593654079861111228e+01 4.603002507716049507e+01 4.612741415895061436e+01 4.625999373070987275e+01 4.637407600308642230e+01 4.648075569058642031e+01 4.659414689429011958e+01 4.672963589891975289e+01 4.726056954089506235e+01 4.732539978780864232e+01 4.738156732253086290e+01 4.738065731095678501e+01 4.730303096064815094e+01 4.724641830632715767e+01 4.720974392361111427e+01 4.719156153549382537e+01 4.715323929398147840e+01 4.715114776234567984e+01 4.715671537422839066e+01 4.716588879243827392e+01 4.719695553626543472e+01 4.722071421682098702e+01 4.726100405092592638e+01 4.732739293981481410e+01 4.739879436728394779e+01 4.748128713348765473e+01 4.756955632716049820e+01 4.768008391203703411e+01 4.781157069830246797e+01 4.792651138117284404e+01 4.803380304783950550e+01 4.817126060956790212e+01 4.828767264660493197e+01 4.839528549382715994e+01 4.840059461805555685e+01 4.837417438271604908e+01 4.834350356867284404e+01 4.833708188657407590e+01 4.833822868441357912e+01 4.849258342978394865e+01 4.852884982638889255e+01 4.856235725308641804e+01 4.861248215663579941e+01 4.864605951003086659e+01 4.867730468749999773e+01 4.869788242669753231e+01 4.872761043595678387e+01 4.875241464120369983e+01 4.879121431327160252e+01 4.884879677854938507e+01 4.890039110725308547e+01 4.894378231095679155e+01 4.898915557484567529e+01 4.903457802854938308e+01 4.908166714891975602e+01 4.912871238425925924e+01 4.912405478395061209e+01 4.902200858410493822e+01 4.888682918595679183e+01 4.878868393132716363e+01 4.870594039351851734e+01 4.863472945601851904e+01 4.858297646604938791e+01 4.857862895447531315e+01 4.858425057870370267e+01 4.859123987268518619e+01 4.857506028163579970e+01 4.854802662037037209e+01 4.852654658564814838e+01 4.851846643518518221e+01 4.858171585648148749e+01 4.860699122299382680e+01 4.863813512731481126e+01 4.868082465277777970e+01 4.871240306712962820e+01 4.874924913194444542e+01 4.876787085262346011e+01 4.873593653549382054e+01 4.863361304012345698e+01 4.852094087577160053e+01 4.841220534336419945e+01 4.833049864969136422e+01 4.826830054012345528e+01 4.820619646990740392e+01 4.816899112654320447e+01 4.815487268518518249e+01 4.814146267361110887e+01 4.812293885030864260e+01 4.813406394675926236e+01 4.815136140046296731e+01 4.818449508101851819e+01 4.823602864583332916e+01 4.827334249614197148e+01 4.832073254243827165e+01 4.836889033564815321e+01 4.843981143904321129e+01 4.849611641589506661e+01 4.846066647376542846e+01 4.837948109567901156e+01 4.827612075617284404e+01 4.801126736111110915e+01 4.801521942515432073e+01 4.800385561342592666e+01 4.799703221450617008e+01 4.801841676311728691e+01 4.803720871913580481e+01 4.807414255401234726e+01 4.811259114583332774e+01 4.814749517746913909e+01 4.819547116126543074e+01 4.826068865740740677e+01 4.833299238040122958e+01 4.840804012345679297e+01 4.848623842592592581e+01 4.855267602237654501e+01 4.861832175925925981e+01 4.868603829089506263e+01 4.873101996527778113e+01 4.871608314043209731e+01 4.862847993827160309e+01 4.854281105324074019e+01 4.846362606095679126e+01 4.841555169753085863e+01 4.837508150077160707e+01 4.833608410493827279e+01 4.832471981095678615e+01 4.833149305555555486e+01 4.834785831404321499e+01 4.837299961419753203e+01 4.840103395061728264e+01 4.843735773533950351e+01 4.858522955246913710e+01 4.864095727237654643e+01 4.867667872299382736e+01 4.873924189814814412e+01 4.879317853009258954e+01 4.885594618055555571e+01 4.891207368827160451e+01 4.893190923996913710e+01 4.893923080632715994e+01 4.889202883873456784e+01 4.875545090663580083e+01 4.863158950617284404e+01 4.854558738425925668e+01 4.849093557098765928e+01 4.846367525077160821e+01 4.845402247299382736e+01 4.845201292438271423e+01 4.846332417052469310e+01 4.846038194444444258e+01 4.846070408950617292e+01 4.847800636574073962e+01 4.852866801697530974e+01 4.856248601466049308e+01 4.862523437500000512e+01 4.869906008873456926e+01 4.879146653163579828e+01 4.888090036651234982e+01 4.895213396990740762e+01 4.902416570216049507e+01 4.909679639274691709e+01 4.912403067129629619e+01 4.906762297453703781e+01 4.903743730709876303e+01 4.898080102237654643e+01 4.892936824845678956e+01 4.889295958719135626e+01 4.889016348379630017e+01 4.889413242669752435e+01 4.890570746527777857e+01 4.893323157793209788e+01 4.893705825617283978e+01 4.896883005401234357e+01 4.902048128858024256e+01 4.907629050925925895e+01 4.914350019290123583e+01 4.920554880401234499e+01 4.927902826003086290e+01 4.936066936728395405e+01 4.950196903935185588e+01 4.955398051697530803e+01 4.954794994212962678e+01 4.947512683256172750e+01 4.940520351080246542e+01 4.933922164351852047e+01 4.928567370756172750e+01 4.924205922067901042e+01 4.921047694830246400e+01 4.920668209876543386e+01 4.921459587191358054e+01 4.922130931712963076e+01 4.922946228780863720e+01 4.931897714120370324e+01 4.933199363425925554e+01 4.935178722993826739e+01 4.938819396219135882e+01 4.947156732253086631e+01 4.953255063657407220e+01 4.958355516975309030e+01 4.964397280092592268e+01 4.970655092592592439e+01 4.975319589120370267e+01 4.976789158950617065e+01 4.972124276620370154e+01 4.962426745756172863e+01 4.951195794753085977e+01 4.944077594521604624e+01 4.936355516975308433e+01 4.931698398919752435e+01 4.928957127700616780e+01 4.928049479166666202e+01 4.927664930555555856e+01 4.926407503858024484e+01 4.924785059799382481e+01 4.925071325231481012e+01 4.925672501929012270e+01 4.927594569830247195e+01 4.931859326774691255e+01 4.938136718750000398e+01 4.943221354166666970e+01 4.949315538194444031e+01 4.954886043595679013e+01 4.961223861882715624e+01 4.993384018132715596e+01 4.995201678240740506e+01 4.990334153163580311e+01 4.978293933256172465e+01 4.965282118055555571e+01 4.953629195601851620e+01 4.947841579861110972e+01 4.941737220293209987e+01 4.937121768904321328e+01 4.933796682098765274e+01 4.933566406250000114e+01 4.932772376543209703e+01 4.931778838734567927e+01 4.931033950617283779e+01 4.929472173996913398e+01 4.928925106095678643e+01 4.930398341049382793e+01 4.932918065200617264e+01 4.936525028935185588e+01 4.939365981867283750e+01 4.943001012731480870e+01 4.946892119984568126e+01 4.949462336033951004e+01 4.953631076388888488e+01 4.957524787808642230e+01 4.954656925154321101e+01 4.944123022762345698e+01 4.931590277777777942e+01 4.922290316358024853e+01 4.915304832175926464e+01 4.910974295910493481e+01 4.894555025077160337e+01 4.897833092206790440e+01 4.901289351851852416e+01 4.903548900462963189e+01 4.908040750385802653e+01 4.911186680169753060e+01 4.914196903935184935e+01 4.920053578317901355e+01 4.925659673996914023e+01 4.932332417052469253e+01 4.940407310956789644e+01 4.951161024305555713e+01 4.962077112268519130e+01 4.971101273148148181e+01 4.979840374228394495e+01 4.986487847222222314e+01 4.977086419753086233e+01 4.968582658179012412e+01 4.962937885802468685e+01 4.961106095679011929e+01 4.960559027777777885e+01 4.961441840277777970e+01 4.962767457561728435e+01 4.966592544367284034e+01 4.969648196373456983e+01 4.971387442129629619e+01 4.974074845679012213e+01 4.979215133101851620e+01 4.985093894675925696e+01 4.993805652006172835e+01 5.035506462191358423e+01 5.039602864583333286e+01 5.042681568287036953e+01 5.044042679398148010e+01 5.046067418981481012e+01 5.043506028163580623e+01 5.030860966435185588e+01 5.014266203703703439e+01 5.000005931712963303e+01 4.991986352237654501e+01 4.986937307098765615e+01 4.983943479938271537e+01 4.984531635802468941e+01 4.986620515046296731e+01 4.988805603780863862e+01 4.991354214891975261e+01 4.995342399691357826e+01 4.999923611111111654e+01 5.004498215663579685e+01 5.010134355709876530e+01 5.016661120756172920e+01 5.023983410493827506e+01 5.031462287808641776e+01 5.040461902006173034e+01 5.046992621527777345e+01 5.055233121141975516e+01 5.060976273148148152e+01 5.058212673611111398e+01 5.045460069444444429e+01 5.032445650077160337e+01 5.022597366898148152e+01 5.002014853395061778e+01 5.001541329089506149e+01 4.999392843364197603e+01 4.999385850694444144e+01 5.000783227237654671e+01 5.002180796682098674e+01 5.003834587191358452e+01 5.005987220293209816e+01 5.008867669753086460e+01 5.011888695987654785e+01 5.016654079861110915e+01 5.022051215277777203e+01 5.028705488040123583e+01 5.035367621527777970e+01 5.043417679398147868e+01 5.052304205246913682e+01 5.060923369984568154e+01 5.065269531250000057e+01 5.060520640432098816e+01 5.050152343749999773e+01 5.039317226080247281e+01 5.030235291280864374e+01 5.018571469907407590e+01 5.004982880015431590e+01 4.995275462962963076e+01 4.990375819830246940e+01 4.987731626157407305e+01 4.985336950231481268e+01 4.983773051697530576e+01 4.982732253086419405e+01 4.980729456018519130e+01 4.977779658564814724e+01 4.982101080246913227e+01 4.985273051697530633e+01 4.988255111882715909e+01 4.992489776234567245e+01 4.996974729938271054e+01 5.001500964506173119e+01 5.006326244212963417e+01 5.008834828317900900e+01 5.005380979938271935e+01 4.996949652777777828e+01 4.988914737654321385e+01 4.984602044753086147e+01 4.980857301311728946e+01 4.977210744598765757e+01 4.976158854166666856e+01 4.972784239969136166e+01 4.974058786651234243e+01 4.973929349922839549e+01 4.976906732253085863e+01 4.980343942901235010e+01 4.984130015432098304e+01 4.988573640046296731e+01 4.994405574845679041e+01 5.001236834490740790e+01 5.005823688271605221e+01 5.010012924382715482e+01 5.014213204089505638e+01 5.014732542438271423e+01 5.009545090663580424e+01 4.996976755401234982e+01 4.995007040895061579e+01 4.991182918595679041e+01 4.989503472222222058e+01 4.985949797453703525e+01 4.985014998070987957e+01 4.986158757716049195e+01 4.986777247299382054e+01 4.987020640432098872e+01 4.987801311728394893e+01 4.989945698302469168e+01 4.991969569830246911e+01 4.994672019675925867e+01 4.998791859567901241e+01 5.002923321759259068e+01 5.005684606481482035e+01 5.009317997685185020e+01 5.012462480709876900e+01 5.017138695987654273e+01 5.016332899305555060e+01 5.008256847993827421e+01 4.996225308641975005e+01 4.985760898919753004e+01 4.976812355324074133e+01 4.969191792052469481e+01 4.962602285879629704e+01 4.958242380401234328e+01 4.956441116898148636e+01 4.955778163580247053e+01 4.954732783564814724e+01 4.953363908179012043e+01 4.946202498070987730e+01 4.950114583333333940e+01 4.955023871527777857e+01 4.959926263503086119e+01 4.966338927469136166e+01 4.973292438271604965e+01 4.979760513117284404e+01 4.984816647376543131e+01 4.992486786265432386e+01 4.999813946759259409e+01 5.001045765817901412e+01 4.993150945216049053e+01 4.982812934027777629e+01 4.975867332175926094e+01 4.968347463348765558e+01 4.963173852237654415e+01 4.960519434799382310e+01 4.958913917824073536e+01 4.961183593750000398e+01 4.962784625771605107e+01 4.962902633101851535e+01 4.962325231481482035e+01 4.964825279706790440e+01 4.967333863811727923e+01 4.971091435185184793e+01 4.977189429012345556e+01 4.982117717978395177e+01 4.987425829475309058e+01 4.992581838348765899e+01 4.997060908564814952e+01 5.002530526620370210e+01 5.040457706404320959e+01 5.042566695601851734e+01 5.034556954089506320e+01 5.022761188271604738e+01 5.011523099922839464e+01 5.003996576003086005e+01 4.998988763503086119e+01 4.994563850308642117e+01 4.990931375385802227e+01 4.991123939043210100e+01 4.991310619212962507e+01 4.992829041280863578e+01 4.991452208719135797e+01 4.992328944830246940e+01 4.993880449459876303e+01 5.000951774691358054e+01 5.006890866126543216e+01 5.012156587577160138e+01 5.019187307098765416e+01 5.026800250771605505e+01 5.034003423996913540e+01 5.040852334104938137e+01 5.047877507716049195e+01 5.052033998842592410e+01 5.045634211033950578e+01 5.037075906635802625e+01 5.028798659336419519e+01 5.024570167824074218e+01 5.020160252700617320e+01 5.016755063657407732e+01 5.011573929398147698e+01 5.014776909722221632e+01 5.013892312885802482e+01 5.014140673225308120e+01 5.014554205246913909e+01 5.015843750000000512e+01 5.018208043981481126e+01 5.021726032021604880e+01 5.025149257330246400e+01 5.031141734182098446e+01 5.038991222993827535e+01 5.046446614583333456e+01 5.054923852237654103e+01 5.062722125771604453e+01 5.068173466435185048e+01 5.066889419367284120e+01 5.059071759259258982e+01 4.717002604166666657e+01 4.703812982253086261e+01 4.697745177469136024e+01 4.695753665123456244e+01 4.694746624228395149e+01 4.697132860725308490e+01 4.700132957175925696e+01 4.700832320601851677e+01 4.703225983796296106e+01 4.705556712962962962e+01 4.708149209104938393e+01 4.711530237268518562e+01 4.716662519290123612e+01 4.722929494598765388e+01 4.757884693287036981e+01 4.761994550540123328e+01 4.768543306327160280e+01 4.775060426311728179e+01 4.779255304783950464e+01 4.779434076003086318e+01 4.774260561342592268e+01 4.764678337191357826e+01 4.755828607253086204e+01 4.748190923996914137e+01 4.743207417052469310e+01 4.739024016203703837e+01 4.737427710262345215e+01 4.737551359953703667e+01 4.737139371141975630e+01 4.736563319830247565e+01 4.736285976080247195e+01 4.736091965663580083e+01 4.736758342978394865e+01 4.741189284336419263e+01 4.746728539737654273e+01 4.752691068672839947e+01 4.760324363425926464e+01 4.767054446373456500e+01 4.776192563657406964e+01 4.784867091049382992e+01 4.793690972222222513e+01 4.802031828703703553e+01 4.802960455246913796e+01 4.795413580246913909e+01 4.784778260030864061e+01 4.758642023533951004e+01 4.760246817129629449e+01 4.759127459490740364e+01 4.757193721064814440e+01 4.754306037808642316e+01 4.754454764660493993e+01 4.755449411651234470e+01 4.755898389274691596e+01 4.758832995756172579e+01 4.764710841049382850e+01 4.773362847222222172e+01 4.782901909722222200e+01 4.790438850308642316e+01 4.799034963348765359e+01 4.812577112268517965e+01 4.814497878086419291e+01 4.811795042438271963e+01 4.807906394675925554e+01 4.807933352623456358e+01 4.801689380787037464e+01 4.787687499999999829e+01 4.772071614583332888e+01 4.759738522376542846e+01 4.750866994598765558e+01 4.744966386959876559e+01 4.740463734567901355e+01 4.737683738425926094e+01 4.735573109567901184e+01 4.733900607638889113e+01 4.733727382330246769e+01 4.731903163580246741e+01 4.732510320216049138e+01 4.731160397376543614e+01 4.729245322145061436e+01 4.727536265432099327e+01 4.728291039737653989e+01 4.728881558641975147e+01 4.732741415895061721e+01 4.737430266203703155e+01 4.741016251929011815e+01 4.743215856481481296e+01 4.739521846064814525e+01 4.729001494984568410e+01 4.714071614583333059e+01 4.700409432870370097e+01 4.691926601080246684e+01 4.687666136188271793e+01 4.683641348379629221e+01 4.681466483410493851e+01 4.682456163194444798e+01 4.684667920524691453e+01 4.685864101080246513e+01 4.688050106095678871e+01 4.691981915509258982e+01 4.696793547453704321e+01 4.702293885030864118e+01 4.708856915509259267e+01 4.716863715277778368e+01 4.724190007716049422e+01 4.734393229166666828e+01 4.742412374614197290e+01 4.777032310956790440e+01 4.772394434799382879e+01 4.758949990354938109e+01 4.746868778935185418e+01 4.736977285879629562e+01 4.728638454861111029e+01 4.723123697916666686e+01 4.720395736882716164e+01 4.720460503472222058e+01 4.722891878858024484e+01 4.723097415123456244e+01 4.722156684027778084e+01 4.721608555169753174e+01 4.722568431712962678e+01 4.724900414737653875e+01 4.727637924382716506e+01 4.731275945216049195e+01 4.735922791280864175e+01 4.740220244984568154e+01 4.745161506558641662e+01 4.750691261574073820e+01 4.752970100308641577e+01 4.744772038966048910e+01 4.728756462191358168e+01 4.714550395447530917e+01 4.704903838734567501e+01 4.697222993827160309e+01 4.693418499228395291e+01 4.689533613040123328e+01 4.689724826388888346e+01 4.691988425925925554e+01 4.695237943672839975e+01 4.698017216435184906e+01 4.700970052083333428e+01 4.705227285879630017e+01 4.711006365740740875e+01 4.717978346836419945e+01 4.725689332561728406e+01 4.734355709876543017e+01
6.056982542438271722e+00 6.056982542438271722e+00 6.022775366512346018e+00 5.804740065586420528e+00 5.328189621913580254e+00 5.172228491512345983e+00 5.163330922067901341e+00 5.181944926697530818e+00 5.204003182870370559e+00 5.227484567901234946e+00 5.260661168981481950e+00 5.279829282407407121e+00 5.328493923611111072e+00 5.339426601080247359e+00 5.358858989197530676e+00 5.391616512345678736e+00 5.387028356481481595e+00 5.379001253858024079e+00 5.298651620370370630e+00 5.177284432870370878e+00 5.101211902006173027e+00 5.026242283950616674e+00 4.964236111111111072e+00 4.886516685956790340e+00 4.941790605709876161e+00 5.192038966049382864e+00 5.214506655092592702e+00 5.237547260802468685e+00 5.257945601851852224e+00 5.293710455246913860e+00 5.315517457561727888e+00 5.354089023919753387e+00 5.567469618055555181e+00 5.522866030092592915e+00 5.441157889660493296e+00 5.414156057098765906e+00 5.420420042438271579e+00 5.443808352623456415e+00 5.469087094907407298e+00 5.479673996913580147e+00 5.489122299382716008e+00 5.502598379629628944e+00 5.495564718364197354e+00 5.507340374228395063e+00 5.511875964506172565e+00 5.525131172839506277e+00 5.520183256172839670e+00 5.522328800154320483e+00 5.542847222222222037e+00 5.538243634259259807e+00 5.577282021604938578e+00 5.569954668209876836e+00 5.581383584104938400e+00 5.584796489197531244e+00 5.596611207561728030e+00 5.602324459876543372e+00 5.599469039351851585e+00 5.608550347222221788e+00 5.612941743827160046e+00 5.623172743055556033e+00 5.636313175154320732e+00 5.618691647376543585e+00 5.630982831790123377e+00 5.792858796296296298e+00 5.710503472222222321e+00 5.633799672067901554e+00 5.622513985339506526e+00 5.617480227623456557e+00 5.620583526234567806e+00 5.627147955246913469e+00 5.635213638117283708e+00 5.634320505401234414e+00 5.650107542438271402e+00 5.660045814043209056e+00 5.666894290123456912e+00 5.674916087962962763e+00 5.678774112654320305e+00 5.691197916666665968e+00 5.697167727623456912e+00 5.726552854938271153e+00 5.733078221450616851e+00 5.735891685956789665e+00 5.729990837191357933e+00 5.735034722222222214e+00 5.729810956790123200e+00 5.716280864197530676e+00 5.717068383487654337e+00 5.725324074074074510e+00 5.724891975308642245e+00 5.720066550925926308e+00 5.708858989197530320e+00 5.718066647376542910e+00 5.736401427469135506e+00 5.743447145061728598e+00 5.806726466049383362e+00 5.748782310956789487e+00 5.702324459876543905e+00 5.702205343364197709e+00 5.698965567129629761e+00 5.707690489969135861e+00 5.715444637345679091e+00 5.736288580246913682e+00 5.735644290123456557e+00 5.720229070216049649e+00 5.726926118827161183e+00 5.711101466049382402e+00 5.697004243827160863e+00 5.716019965277777892e+00 5.722423804012345627e+00 5.707652874228394957e+00 5.742821180555555571e+00 5.746844618055555465e+00 5.762490354938271331e+00 5.800473090277778354e+00 5.801437114197530498e+00 5.825938946759259274e+00 5.823339602623456734e+00 5.818937596450617811e+00 5.827182195216049188e+00 5.822730999228395099e+00 5.821469907407407440e+00 5.829575617283950351e+00 5.841162229938271722e+00 5.381930941358024079e+00 5.060809220679012732e+00 4.765442708333333499e+00 4.692887731481481417e+00 4.632961998456790020e+00 4.662622010030864850e+00 4.681292920524691148e+00 4.695851658950616958e+00 4.703725887345679091e+00 4.704091917438271153e+00 4.720662615740740975e+00 4.749463252314814810e+00 4.768283661265432016e+00 4.777500482253086211e+00 4.771634355709876374e+00 4.790746527777778319e+00 4.811176215277777501e+00 4.806534529320988014e+00 4.822963445216049472e+00 4.827158082561728847e+00 4.826253858024691645e+00 4.825323591820986913e+00 4.837185088734567984e+00 4.841338252314814738e+00 4.856307870370370594e+00 4.859144483024691041e+00 4.868461612654320980e+00 4.867001832561729024e+00 4.874692804783950173e+00 4.869619502314814774e+00 4.866301601080246897e+00 4.880190972222221646e+00 4.886865354938271899e+00 4.778838734567901092e+00 4.701603491512345023e+00 4.715096450617283885e+00 4.755722415123456948e+00 4.778036747685185937e+00 4.793692611882716115e+00 4.816429398148147634e+00 4.842191840277777715e+00 4.852894483024691397e+00 4.857122395833333606e+00 4.890070891203704306e+00 4.896669077932098268e+00 4.904831693672839776e+00 4.899828317901234520e+00 4.928167920524691326e+00 4.928876832561728705e+00 4.943688271604938400e+00 4.939016203703703312e+00 4.940951967592591920e+00 4.948138985339506135e+00 4.982636477623456628e+00 4.994334008487653520e+00 5.002691454475308497e+00 5.015703124999999929e+00 5.007885320216049152e+00 5.026957947530863891e+00 5.012345196759259380e+00 5.014600212191358430e+00 5.032405478395061138e+00 5.048296682098765586e+00 4.957054880401234875e+00 4.905454764660493794e+00 4.896502700617284098e+00 4.933426408179012235e+00 4.952218364197530143e+00 4.977101176697530605e+00 4.992756558641975317e+00 5.011905864197530924e+00 5.003279803240740620e+00 5.008263406635802717e+00 5.010248360339505602e+00 5.023903356481481453e+00 5.031484374999999787e+00 5.031072530864197923e+00 5.046151620370370239e+00 5.052427662037036526e+00 5.053600983796296298e+00 5.063434124228394673e+00 5.065165412808641854e+00 5.066948302469135967e+00 5.089606963734568446e+00 5.089233699845678416e+00 5.084711130401234236e+00 5.086525366512345769e+00 5.112520254629630223e+00 5.105405092592592453e+00 5.109133873456789487e+00 5.091706693672839457e+00 5.084037905092592347e+00 5.078241705246913540e+00 5.074026813271604652e+00 5.067266589506172814e+00 4.994508101851852011e+00 4.979503761574074261e+00 4.996922260802469040e+00 5.006580343364197105e+00 5.008487172067901838e+00 5.016955054012345983e+00 5.041341145833333037e+00 5.054292534722222285e+00 5.065258005401235053e+00 5.078343460648147456e+00 5.093026138117283885e+00 5.095049189814814916e+00 5.103164062500000320e+00 5.129915123456790127e+00 5.135078124999999716e+00 5.132858314043209802e+00 5.134351369598765480e+00 5.146894772376542804e+00 5.143151523919753387e+00 5.143860918209877120e+00 5.133947241512346160e+00 5.150503954475308177e+00 5.150794753086420208e+00 5.180405092592592631e+00 5.180110435956789772e+00 5.183649691358024114e+00 5.180401234567900914e+00 5.184060088734567806e+00 5.187344232253086496e+00 5.183210358796296546e+00 5.166469425154320838e+00 5.097313850308641925e+00 5.085529996141975317e+00 5.086724054783950066e+00 5.105135513117284418e+00 5.125741705246913860e+00 5.145529031635802220e+00 5.154681712962962514e+00 5.162791763117284383e+00 5.173143325617283850e+00 5.181530189043209056e+00 5.190069926697531422e+00 5.179824942129629406e+00 5.181021412037036811e+00 5.202486496913580005e+00 5.193894193672839776e+00 5.196608796296295907e+00 5.199488811728395277e+00 5.202314814814815058e+00 5.215483217592592702e+00 5.224093846450617029e+00 5.233598572530864246e+00 5.251482928240740478e+00 5.257372685185185190e+00 5.259592496141975104e+00 5.246905864197531244e+00 5.242796103395061635e+00 5.229045138888888111e+00 5.231340663580247075e+00 5.237861207561728349e+00 5.264734760802468827e+00 5.148861400462962479e+00 5.153792920524691290e+00 5.153915895061728314e+00 5.135307195216049614e+00 5.140405092592592595e+00 5.162473958333333890e+00 5.177604648919753139e+00 5.160845871913580574e+00 5.172031249999999858e+00 5.182622010030863535e+00 5.181908757716048974e+00 5.194530285493827115e+00 5.194144483024691006e+00 5.203229648919752925e+00 5.227966820987654195e+00 5.224328703703703169e+00 5.238279803240740939e+00 5.259214891975308781e+00 5.260552179783950066e+00 5.259799864969135541e+00 5.269773823302468685e+00 5.261942033179012768e+00 5.268086419753086780e+00 5.285541087962962514e+00 5.280013503086419924e+00 5.256308352623456415e+00 5.252198591820987694e+00 5.251319926697530782e+00 5.244270833333333215e+00 5.233982445987654053e+00 5.321432773919752890e+00 5.240394000771605221e+00 5.215428722993827648e+00 5.231378279320987090e+00 5.235927372685185155e+00 5.259577546296296369e+00 5.237565586419752783e+00 5.240938464506172956e+00 5.250970293209876516e+00 5.255586902006172956e+00 5.245348668981481666e+00 5.244034529320988014e+00 5.249171971450617313e+00 5.258808352623456805e+00 5.251341628086420243e+00 5.252460937499999538e+00 5.261397087191357791e+00 5.257145061728394353e+00 5.224480613425925846e+00 5.195060763888888822e+00 5.177019675925925490e+00 5.171471354166666146e+00 5.165833815586419853e+00 5.154800347222222356e+00 5.183298611111110787e+00 5.188296682098765267e+00 5.197592110339505744e+00 5.193579282407407405e+00 5.189261670524691006e+00 5.194096739969135790e+00 5.203794849537036526e+00 5.284922357253086567e+00 5.223282696759259380e+00 5.188438464506172743e+00 5.196869212962962337e+00 5.205050154320987055e+00 5.218259066358024612e+00 5.226157889660493439e+00 5.224899209104938436e+00 5.216422646604939040e+00 5.194876543209876019e+00 5.168927951388888609e+00 5.167749324845678949e+00 5.180174093364198207e+00 5.176135706018518690e+00 5.190310570987654692e+00 5.184634934413580254e+00 5.178599537037037237e+00 5.192014853395061635e+00 5.214758391203702992e+00 5.219786844135803072e+00 5.211818094135802326e+00 5.230615354938271899e+00 5.247861207561729024e+00 5.258123553240740655e+00 5.263648726851852366e+00 5.269473861882715937e+00 5.280528549382716541e+00 5.275409432870370452e+00 5.253377700617283708e+00 5.242983217592592560e+00 5.322798514660493474e+00 5.250517457561728385e+00 5.230271026234567522e+00 5.216366222993826796e+00 5.214468557098765444e+00 5.232690007716048974e+00 5.252790798611111533e+00 5.261112557870370132e+00 5.263846450617283956e+00 5.257714120370370559e+00 5.272909915123456415e+00 5.288486207561728492e+00 5.283586516203703454e+00 5.302978395061727745e+00 5.300525655864197105e+00 5.299284336419752606e+00 5.296191165123456557e+00 5.304741030092592347e+00 5.286623263888889035e+00 5.258592303240741117e+00 5.268612557870370416e+00 5.271086516203703276e+00 5.250761959876543372e+00 5.246349344135802895e+00 5.268361786265431945e+00 5.275277777777778176e+00 5.272158082561728243e+00 5.278650173611111107e+00 5.291066743827160579e+00 5.297973090277777963e+00 5.302547260802469076e+00 5.379276138117283779e+00 5.289296874999999787e+00 5.259618537808641747e+00 5.271961805555555713e+00 5.274213927469135754e+00 5.297592110339506277e+00 5.314642168209876338e+00 5.311857156635801935e+00 5.309518711419753068e+00 5.290122010030864352e+00 5.250509259259259487e+00 5.233176601080247181e+00 5.235054012345679020e+00 5.239932002314814596e+00 5.245990547839506135e+00 5.258307291666667105e+00 5.262622974537037202e+00 5.288578800154320803e+00 5.292175925925926450e+00 5.289390432098765693e+00 5.309336902006172032e+00 5.324017168209876694e+00 5.326555266203703454e+00 5.343993537808641392e+00 5.350996817129630045e+00 5.368848379629629797e+00 5.361300636574073408e+00 5.342062114197530853e+00 5.331480516975308781e+00 5.339660011574073550e+00 5.342894000771604368e+00 5.393605806327160579e+00 5.302187500000000497e+00 5.288371913580246719e+00 5.285734953703703276e+00 5.278872974537037521e+00 5.291308352623456557e+00 5.295231963734567948e+00 5.306719714506172636e+00 5.314252025462963047e+00 5.308295235339505425e+00 5.321041184413579650e+00 5.333704668209876765e+00 5.351293402777778319e+00 5.360331307870369599e+00 5.364072145061729024e+00 5.380096450617283921e+00 5.374146412037037024e+00 5.356714891975308923e+00 5.353037229938271579e+00 5.355424864969135612e+00 5.342615740740740193e+00 5.325943287037037344e+00 5.334315200617283814e+00 5.338275945216049756e+00 5.328626060956790589e+00 5.319872202932098837e+00 5.325311535493827186e+00 5.325362654320987765e+00 5.348409529320987232e+00 5.344857253086419568e+00 5.407425733024691539e+00 5.345617283950616638e+00 5.330853105709876694e+00 5.315527102623456734e+00 5.346614583333333393e+00 5.371647858796295694e+00 5.355659239969136287e+00 5.353240740740740300e+00 5.353185281635802539e+00 5.350805844907407405e+00 5.343643904320988014e+00 5.337129147376542981e+00 5.324951292438272255e+00 5.313101369598765444e+00 5.304290605709875983e+00 5.303262924382716292e+00 5.304628665123456877e+00 5.314076003086420030e+00 5.319767554012345023e+00 5.339685570987653840e+00 5.336819058641975921e+00 5.333726369598765338e+00 5.337661072530864637e+00 5.349029224537037663e+00 5.360118152006172032e+00 5.362675057870370132e+00 5.378561921296296511e+00 5.388160204475308745e+00 5.388961226851852082e+00 5.393403742283950031e+00 5.385467785493826653e+00 5.413378665123456557e+00 5.345607156635802326e+00 5.324202353395061316e+00 5.296695601851851620e+00 5.273795331790123164e+00 5.284135802469135612e+00 5.295277295524691397e+00 5.290454282407407227e+00 5.286472318672839954e+00 5.303592785493826511e+00 5.309649884259258990e+00 5.312413676697531173e+00 5.315842496141975460e+00 5.316814718364197390e+00 5.331603009259259451e+00 5.343522376543210051e+00 5.352821662808642245e+00 5.348631847993827293e+00 5.360164448302469076e+00 5.362802854938271579e+00 5.380447530864197248e+00 5.383565297067900879e+00 5.391714891975308177e+00 5.393928433641974607e+00 5.396070601851851833e+00 5.389193672839505567e+00 5.374502314814814774e+00 5.357628279320987730e+00 5.333013599537037130e+00 5.324733796296295729e+00 5.327779224537036562e+00 5.453349247685185475e+00 5.363805459104938222e+00 5.355045331790123875e+00 5.365087770061728101e+00 5.358180459104938897e+00 5.375316840277777786e+00 5.375881076388889568e+00 5.392127700617283637e+00 5.397654803240740762e+00 5.398941936728395063e+00 5.399540895061728740e+00 5.399359567901234946e+00 5.404006076388888857e+00 5.411698013117283601e+00 5.430120081018518619e+00 5.419003182870370416e+00 5.391616994598765089e+00 5.381395640432098837e+00 5.377670717592592631e+00 5.396103877314814667e+00 5.416937210648148593e+00 5.413292341820987730e+00 5.420396894290123058e+00 5.414060088734567344e+00 5.432685667438271970e+00 5.442660590277777821e+00 5.442324942129629584e+00 5.466826292438271118e+00 5.477811053240740691e+00 5.481483892746913611e+00 5.496491126543210370e+00 5.433417727623456095e+00 5.398370949074074332e+00 5.403342978395061280e+00 5.401785783179012590e+00 5.405241608796296227e+00 5.391388888888888786e+00 5.372646604938271508e+00 5.372380401234567948e+00 5.370394483024691468e+00 5.363193962191358466e+00 5.368240740740740868e+00 5.384212962962962479e+00 5.399696180555555891e+00 5.402003761574073692e+00 5.410332272376543905e+00 5.424864969135803072e+00 5.428941936728395312e+00 5.426099537037036846e+00 5.449619984567901199e+00 5.455605709876543585e+00 5.460373746141975460e+00 5.450757619598765480e+00 5.462896412037037130e+00 5.467232831790123981e+00 5.450781732253086709e+00 5.457644675925926059e+00 5.435045814043209411e+00 5.429146894290123981e+00 5.410964506172839528e+00 5.413457272376543727e+00 5.525256558641975069e+00 5.438874903549382189e+00 5.420213638117283850e+00 5.431462673611111569e+00 5.439880401234567842e+00 5.434285300925925988e+00 5.437750771604937583e+00 5.465478395061728278e+00 5.464699074074074403e+00 5.465292245370370061e+00 5.468752893518519009e+00 5.486415895061727888e+00 5.489167148919753103e+00 5.495766300154320660e+00 5.510613425925925846e+00 5.517236689814815520e+00 5.500180362654321087e+00 5.499687982253086638e+00 5.509281442901234449e+00 5.483732156635801935e+00 5.466716820987654657e+00 5.469049479166666394e+00 5.443029513888888893e+00 5.433786168981481701e+00 5.416386959876543727e+00 5.424041280864197567e+00 5.444469039351852224e+00 5.437995273919753458e+00 5.451293885030864317e+00 5.449471932870370239e+00 5.449687982253086815e+00 5.538425925925926308e+00 5.461208526234567984e+00 5.442353395061728882e+00 5.441229263117284276e+00 5.457867476851851585e+00 5.475372781635802433e+00 5.465154803240740655e+00 5.465434027777777537e+00 5.468919270833333179e+00 5.467526523919753245e+00 5.463365644290123058e+00 5.474982156635802788e+00 5.465356385030864850e+00 5.466802179783949889e+00 5.475698302469135470e+00 5.470258969907407121e+00 5.481233121141975140e+00 5.496003086419753103e+00 5.492859760802469182e+00 5.505378568672839812e+00 5.513921682098765764e+00 5.518770254629630223e+00 5.530126350308641747e+00 5.537227527006173489e+00 5.542341338734567913e+00 5.548498746141975246e+00 5.537855902777777395e+00 5.526073495370370736e+00 5.539061053240740939e+00 5.522690489969135363e+00 5.582625868055555607e+00 5.494174864969135541e+00 5.475287422839505425e+00 5.475539641203703844e+00 5.470245949074074687e+00 5.474024402006172352e+00 5.485456211419752925e+00 5.493730709876543550e+00 5.494683159722222321e+00 5.498003472222221966e+00 5.498636188271604830e+00 5.519266975308641854e+00 5.519839891975307999e+00 5.530150462962962976e+00 5.542937403549382580e+00 5.529619502314814916e+00 5.518139467592592773e+00 5.524833140432098944e+00 5.536852816358024398e+00 5.531960841049382793e+00 5.510015432098765764e+00 5.498002025462962905e+00 5.501444347993826867e+00 5.494579957561727568e+00 5.498967013888888644e+00 5.499947916666666714e+00 5.493878761574074510e+00 5.500446084104938294e+00 5.507156635802469502e+00 5.516528742283950848e+00 5.515724344135802149e+00 5.617362075617283956e+00 5.545651523919753245e+00 5.502006172839506881e+00 5.515563271604938755e+00 5.522748842592593022e+00 5.544733796296296369e+00 5.548421585648148913e+00 5.559196084104939040e+00 5.564284818672839528e+00 5.549665316358024292e+00 5.544863040123456877e+00 5.544266493055555856e+00 5.517486014660494043e+00 5.524836998456789772e+00 5.527772472993827790e+00 5.528402295524691645e+00 5.523288966049382687e+00 5.553138985339506561e+00 5.555517457561728101e+00 5.565951003086419213e+00 5.566981095679012448e+00 5.577218364197530143e+00 5.601727430555555998e+00 5.586505594135802610e+00 5.589478202160494291e+00 5.590806809413580325e+00 5.594923321759258883e+00 5.606467978395061280e+00 5.612415605709876409e+00 5.608870081018518583e+00 5.612659143518518690e+00 5.637241512345679162e+00 5.546376350308642067e+00 5.523473186728395490e+00 5.540720486111110787e+00 5.536940586419753174e+00 5.527145061728394815e+00 5.540858410493827435e+00 5.533716242283950315e+00 5.527969714506173027e+00 5.550255111882716363e+00 5.562801890432098162e+00 5.559290123456790411e+00 5.589846643518519009e+00 5.584950327932098446e+00 5.584809992283950031e+00 5.586212866512345165e+00 5.592323495370370878e+00 5.602554976851851443e+00 5.605674189814815023e+00 5.614616126543209518e+00 5.613472704475308994e+00 5.599171489197530605e+00 5.600500578703702992e+00 5.600652006172839315e+00 5.609344135802468934e+00 5.604188368055555536e+00 5.589381751543209376e+00 5.595625482253086425e+00 5.580598476080247394e+00 5.580966435185185759e+00 5.649296875000000107e+00 5.596782407407407511e+00 5.562448398919753068e+00 5.569310860339506064e+00 5.566934799382716292e+00 5.571680652006172352e+00 5.586919367283949889e+00 5.604032600308642031e+00 5.596921778549382331e+00 5.608549864969136323e+00 5.609669174382715617e+00 5.612859760802468401e+00 5.616251929012345379e+00 5.615905671296296475e+00 5.607414641203703809e+00 5.596153549382716363e+00 5.593003954475308959e+00 4.938997878086419213e+00 4.911075906635802291e+00 4.928126446759258705e+00 4.958394579475308817e+00 4.971253858024691219e+00 4.983104745370370736e+00 4.983703703703703525e+00 4.981729841820987659e+00 4.976766010802468720e+00 4.981638695987653520e+00 4.985925443672839741e+00 5.005630787037037344e+00 5.004951774691358324e+00 5.031657503858024683e+00 5.116418306327160437e+00 5.049442515432098766e+00 5.020000964506173169e+00 5.033576388888889142e+00 5.014422260802469111e+00 5.025811631944444358e+00 5.016684992283950706e+00 5.007187982253086034e+00 5.001630015432098730e+00 4.994596836419752606e+00 5.008113425925925455e+00 5.006748649691358466e+00 5.000078607253086282e+00 5.013255208333333712e+00 5.018994502314814810e+00 5.027549672067901376e+00 5.028237364969135648e+00 5.039548611111110965e+00 5.053141878858024683e+00 5.061235532407406978e+00 5.055488522376542448e+00 5.059908854166667247e+00 5.051237943672838959e+00 5.058869598765431519e+00 5.061922743055554896e+00 5.064495563271605327e+00 5.060761959876542981e+00 5.061948302469135186e+00 5.060588831018518974e+00 5.062189429012345698e+00 5.050636574074074403e+00 5.159536554783950457e+00 5.089304591049383042e+00 5.068960262345679091e+00 5.048504050925926023e+00 5.050998263888889284e+00 5.061534529320987907e+00 5.053969425154321016e+00 5.052720389660493971e+00 5.056541280864197851e+00 5.065174093364197105e+00 5.076939621913579614e+00 5.068124035493827506e+00 5.063035783179012483e+00 5.069432870370370381e+00 5.079568865740740513e+00 5.078451485339505744e+00 5.063183352623457090e+00 5.049292052469135150e+00 5.055443190586419888e+00 5.038528645833332931e+00 5.027406925154320305e+00 4.995087770061728882e+00 4.985391589506172672e+00 4.983718171296295907e+00 4.980811631944444429e+00 4.978296199845678949e+00 4.977114197530864814e+00 4.990443672839505851e+00 4.987694830246913291e+00 5.011258198302469324e+00 5.114843750000000355e+00 5.052755594135802220e+00 5.023658854166666465e+00 5.017073688271604937e+00 5.020769193672839137e+00 5.020830439814814916e+00 5.032746913580247394e+00 5.030960165895061564e+00 5.028123070987653875e+00 5.042646122685185084e+00 5.042628279320987339e+00 5.031032986111110716e+00 5.010597993827160757e+00 4.991931905864197105e+00 4.979137731481481310e+00 4.979917534722222427e+00 4.996592399691357933e+00 4.990487557870370239e+00 4.993017457561728101e+00 4.992208719135802220e+00 5.001636284722222214e+00 5.014340760030863819e+00 5.027047164351851727e+00 5.028795814043209411e+00 5.030801022376543585e+00 5.034066840277778176e+00 5.058857060185185439e+00 5.054861593364197603e+00 5.060584490740740016e+00 5.064470486111111391e+00 5.073087384259259203e+00 5.128872492283950812e+00 5.059379822530863713e+00 5.034026331018519151e+00 5.027290219907407653e+00 5.019790219907407369e+00 5.033854648919753316e+00 5.023835358796296724e+00 5.019557291666666643e+00 5.010692515432098482e+00 5.032429108796296013e+00 5.011454957561728207e+00 5.012265624999999503e+00 5.023262442129629690e+00 5.031045524691357684e+00 5.037101658950617455e+00 5.040424382716049756e+00 5.032539544753086957e+00 5.049512442129629797e+00 5.052974054783950564e+00 5.044645061728394886e+00 5.041492573302469360e+00 5.041620370370369919e+00 5.015440779320987197e+00 4.993035300925925846e+00 4.975730613425925597e+00 4.966511381172839634e+00 4.964627218364197070e+00 4.961261574074073977e+00 4.969951292438271828e+00 4.974210069444445104e+00 4.988454861111111249e+00 5.117971161265431945e+00 5.041845582561728101e+00 5.007946566358024931e+00 5.039749710648147918e+00 5.043916859567900701e+00 5.047556905864198029e+00 5.038515625000000497e+00 5.026752989969136109e+00
