1.953162022569444503e+02 1.953097077546296418e+02 1.952284876543209862e+02 1.952012162422839481e+02 1.958745534336419780e+02 1.962506828703703547e+02 1.965747598379629721e+02 1.968733984375000148e+02 1.971587798996913534e+02 1.974436969521605079e+02 1.977357233796296327e+02 1.980441840277777885e+02 1.983533531057098855e+02 1.987009616126543108e+02 1.998522714120370267e+02 2.000316642554012390e+02 1.996358873456790093e+02 1.976394319058641997e+02 1.953140456211419860e+02 1.939578356481481478e+02 1.939232957175925947e+02 1.939267838541666720e+02 1.938574035493826955e+02 1.938122145061728645e+02 1.939462876157407436e+02 1.941720577739197324e+02 1.942946735146605022e+02 1.943040027006172750e+02 1.943247173996913659e+02 1.944998765432098651e+02 1.948537553047839594e+02 1.956443537808641793e+02 1.956594888117284086e+02 1.958654798418209850e+02 1.962751167052469157e+02 1.965093532986111029e+02 1.967630613425926072e+02 1.970322439236111052e+02 1.973190017361111188e+02 1.976015224729938211e+02 1.978669029706790354e+02 1.981483376736111097e+02 1.984492510609567830e+02 1.987723562885802551e+02 1.991207812499999932e+02 1.995071214313271355e+02 1.997535754243827171e+02 1.994730406057098833e+02 1.976801625192901213e+02 1.958933275462963195e+02 1.951398586998456892e+02 1.949336829668209816e+02 1.948739076967592609e+02 1.948647834683642088e+02 1.949325593171296305e+02 1.951204639274691317e+02 1.952478419174382793e+02 1.952824956597222297e+02 1.952351051311728440e+02 1.952381857638889073e+02 1.953567298418209646e+02 1.956209167631172932e+02 1.962830656828703582e+02 1.963591883680555554e+02 1.967831071566358219e+02 1.970969203317901304e+02 1.973686091820987656e+02 1.975819550540123259e+02 1.977891936728395024e+02 1.980158815586419507e+02 1.982662765239197427e+02 1.985402435378086352e+02 1.988297704475308478e+02 1.991517057291666788e+02 1.995070722415123612e+02 1.998803399884259306e+02 1.999974204282407300e+02 1.993155753279320948e+02 1.973265485146604874e+02 1.961310725308641736e+02 1.958097246334876331e+02 1.957109939236111131e+02 1.957384032600308785e+02 1.958595543981481626e+02 1.961353877314814724e+02 1.963320693479938086e+02 1.963265301890432113e+02 1.962016835455247019e+02 1.961206978202160371e+02 1.961696720679012174e+02 1.963382214506172829e+02 1.966072747878086489e+02 1.969499715470678893e+02 1.975511583719135729e+02 1.976698707561728554e+02 1.979320780285493697e+02 1.981709461805555748e+02 1.983758444251543267e+02 1.985469767554012321e+02 1.987301837384259500e+02 1.989635874807098617e+02 1.992478809799382589e+02 1.996121841242283779e+02 1.999268108603394865e+02 1.997128554205246758e+02 1.980410223765432249e+02 1.962653423996913489e+02 1.955019690393518488e+02 1.952917515432098696e+02 1.952180299961419507e+02 1.952377912808642009e+02 1.953984886188271446e+02 1.956287374614197745e+02 1.957285334683641906e+02 1.956877420910493584e+02 1.956018436535493947e+02 1.955975284529320959e+02 1.957099623842592564e+02 1.959342717978395001e+02 1.962617274305555384e+02 1.966296088927469157e+02 1.969817635995370324e+02 1.973266256751543324e+02 1.976049527391975289e+02 1.980492944637345545e+02 1.981423958333333246e+02 1.983341343557098924e+02 1.985311921296296305e+02 1.987910841049382498e+02 1.990675583526234504e+02 1.994100626929012208e+02 1.997219854359567819e+02 1.994511820023147948e+02 1.974955579668209964e+02 1.955380762924382907e+02 1.947196788194444252e+02 1.944951967592592723e+02 1.943840890239197279e+02 1.942850718557098730e+02 1.942734616126543017e+02 1.944243176118827137e+02 1.945801157407407231e+02 1.946227155671296316e+02 1.946014443479938336e+02 1.946240644290123498e+02 1.947615986689814633e+02 1.950216628086419917e+02 1.953870187114197279e+02 1.957965354938271503e+02 1.961695645254629596e+02 1.964991497878086193e+02 1.968124252507716108e+02 1.970712962962963104e+02 1.973283897569444605e+02 1.976093754822530855e+02 1.981325086805555600e+02 1.982542626350308694e+02 1.984868745177469123e+02 1.987358188657407538e+02 1.990451355131172875e+02 1.993828375771604726e+02 1.995533752893518624e+02 1.988341189236111290e+02 1.964985484182098787e+02 1.948264911265432033e+02 1.941060455246913534e+02 1.940056751543210112e+02 1.939142115162037214e+02 1.938114322916666481e+02 1.938026027199074122e+02 1.939365605709876377e+02 1.940666136188271764e+02 1.940911443865740864e+02 1.940982306134259261e+02 1.941551596257716028e+02 1.943395114776234607e+02 1.946397444058641781e+02 1.950475414737654205e+02 1.954649522569444571e+02 1.958397873263888869e+02 1.962102473958333348e+02 1.965187953317901304e+02 1.968024532214506053e+02 1.970386168981481489e+02 1.973297911844135797e+02 1.976151273148147993e+02 1.981851909722222160e+02 1.983229248649691385e+02 1.985551258680555691e+02 1.988376900077160485e+02 1.991553018904320993e+02 1.995038011188271412e+02 1.996709601658950817e+02 1.989408723958333383e+02 1.947009688464506212e+02 1.941260093557098969e+02 1.939734336419753049e+02 1.938888204089506360e+02 1.937944608410493856e+02 1.938082976466049274e+02 1.939213797260802608e+02 1.940184360532407482e+02 1.940107190393518692e+02 1.939620818865740546e+02 1.940007364004629551e+02 1.941692828896605079e+02 1.944796961805555497e+02 1.948732378472222138e+02 1.952852512538580072e+02 1.956655459104938188e+02 1.960419815779321198e+02 1.963457499035493754e+02 1.966112133487654319e+02 1.968383333333333383e+02 1.970903100887345545e+02 1.973765581597222081e+02 1.979459765624999932e+02 1.980608309220679075e+02 1.983190629822530866e+02 1.985970365547839549e+02 1.989299377893518681e+02 1.992740441743827091e+02 1.991962673611110972e+02 1.977123215663580140e+02 1.955106901041666845e+02 1.943101798804012219e+02 1.940633666087963149e+02 1.939495273919753231e+02 1.939702044753086341e+02 1.940892443094135729e+02 1.943373157793209884e+02 1.944996691743827171e+02 1.944320519868827262e+02 1.943018393132715858e+02 1.942591068672839469e+02 1.943381269290123612e+02 1.945708386381172943e+02 1.949080873842592609e+02 1.953037360146604726e+02 1.956818658371913671e+02 1.960596720679012321e+02 1.963492346643518545e+02 1.966147511574073974e+02 1.968620876736111143e+02 1.970898138503086443e+02 1.973277010995370233e+02 1.975686019483024722e+02 1.981354542824074088e+02 1.982821195023147993e+02 1.985550443672839549e+02 1.988636352237654421e+02 1.987637244405864010e+02 1.971536111111111040e+02 1.949792336998456790e+02 1.937792361111111177e+02 1.934245953896604817e+02 1.933605570023148061e+02 1.933749503279320834e+02 1.934907151813271469e+02 1.937208005401234345e+02 1.939401186342592496e+02 1.939462480709876502e+02 1.938650120563271457e+02 1.938502835648148164e+02 1.939719256365740705e+02 1.942432354359567910e+02 1.946424175347222274e+02 1.950755406057098753e+02 1.955252527006172727e+02 1.959646363811728236e+02 1.962976388888889119e+02 1.966032257908950669e+02 1.968422477816357912e+02 1.971012210648148084e+02 1.973539168595678746e+02 1.976306558641975357e+02 1.979245360725308558e+02 1.982185074266975278e+02 1.988669116512345738e+02 1.990458796296296100e+02 1.992673871527777862e+02 1.988419285300925878e+02 1.965484862075617229e+02 1.943456568287037101e+02 1.935145558449073917e+02 1.931227146026234607e+02 1.930056114969135876e+02 1.929765576774691169e+02 1.931294188850308728e+02 1.932896595293209998e+02 1.933480632716049286e+02 1.933348688271604772e+02 1.933738570601851734e+02 1.935337678433641884e+02 1.938401065779320902e+02 1.942771373456789945e+02 1.947869111689815043e+02 1.952086434220678939e+02 1.956047955246913546e+02 1.959136911651234527e+02 1.961926779513889016e+02 1.964748857060185117e+02 1.967644849537036862e+02 1.970610479359567933e+02 1.973470505401234618e+02 1.976525848765431874e+02 1.979699691358024722e+02 1.983345476466049320e+02 1.990534027777777624e+02 1.992021725501543017e+02 1.991801837384259386e+02 1.977619184027777806e+02 1.953530507330247019e+02 1.938169878472222081e+02 1.934546527777777669e+02 1.933144970100308626e+02 1.932395712770061778e+02 1.931939342206790116e+02 1.933052020640432147e+02 1.935221262538580334e+02 1.936365388695987519e+02 1.936187837577160451e+02 1.936078804976851870e+02 1.937086718749999932e+02 1.939425414737654307e+02 1.943250969328703661e+02 1.947569507137345681e+02 1.952117645640431931e+02 1.956228269675926015e+02 1.959463990162036851e+02 1.962282976466049433e+02 1.965065576774691465e+02 1.967900583526234755e+02 1.970313233024691328e+02 1.972706346450617332e+02 1.975196315586419757e+02 1.978284514853395137e+02 1.981845741705247121e+02 1.985862856867283881e+02 1.992522733410493743e+02 1.991626210455247019e+02 1.978567327353395058e+02 1.954887119020061732e+02 1.942578915895061868e+02 1.938392717978395012e+02 1.937487360146604942e+02 1.937562234760802369e+02 1.938691155478395274e+02 1.941497636959876445e+02 1.943725815007716164e+02 1.943567988040123566e+02 1.942603896604938143e+02 1.942100482253086398e+02 1.942823987268518522e+02 1.944928520447530786e+02 1.947967631172839731e+02 1.951893200231481558e+02 1.956056341628086557e+02 1.960259076003086420e+02 1.963458391203703854e+02 1.965868094135802551e+02 1.968238175154321254e+02 1.970687890625000023e+02 1.973313985339506189e+02 1.975809346064814633e+02 1.978603134645061914e+02 1.981649903549382543e+02 1.985424006558641850e+02 1.988965330825617457e+02 1.988181375385802312e+02 1.970588802083333348e+02 1.950313560956790297e+02 1.938163160686728475e+02 1.934086193094135808e+02 1.932963999807098787e+02 1.932947419945987519e+02 1.933782716049382771e+02 1.938012061149691476e+02 1.938347111304012174e+02 1.937524725115740694e+02 1.937379861111110984e+02 1.938534910300926128e+02 1.941088295717592587e+02 1.944892457561728349e+02 1.949033733603394865e+02 1.953808314043209862e+02 1.957339520640432227e+02 1.960637225115740705e+02 1.963360923032407186e+02 1.966446981095679121e+02 1.968882566550925901e+02 1.971518740354938188e+02 1.974378727816358037e+02 1.977133815586419701e+02 1.980126610725308467e+02 1.983606042631172954e+02 1.987460064621913602e+02 1.989994767554012469e+02 1.985094323881172897e+02 1.961248408564814838e+02 1.939633352623456801e+02 1.935481061921296373e+02 1.932131645447530843e+02 1.930273895640432045e+02 1.928767119984568126e+02 1.928475337577160360e+02 1.930007388117283824e+02 1.931816198881172681e+02 1.932299078896604954e+02 1.932081524884259238e+02 1.932485508294753060e+02 1.934202420910493743e+02 1.937066126543209919e+02 1.940960951967592507e+02 1.945353322723765359e+02 1.949481399498456824e+02 1.953002420910493697e+02 1.956517076581790207e+02 1.959320780285493697e+02 1.962014809992284086e+02 1.964624320023148130e+02 1.967594603587963036e+02 1.970381910686728588e+02 1.973416382137345693e+02 1.976630073302468986e+02 1.980184341242283779e+02 1.984302666859567807e+02 1.987490055941358094e+02 1.985428086419753129e+02 1.965647728587962888e+02 1.944894063464506360e+02 1.931804137731481319e+02 1.930941700424382645e+02 1.929816459297839515e+02 1.928855000964506416e+02 1.928483410493827250e+02 1.930056577932098776e+02 1.932372169174382748e+02 1.933154340277777976e+02 1.933023451967592621e+02 1.933274575617284086e+02 1.934827020640432238e+02 1.937709018132715926e+02 1.941781143904321141e+02 1.946517197145061857e+02 1.950524281442901326e+02 1.954357884837962729e+02 1.957598847415123373e+02 1.960355232445987781e+02 1.963016767939814997e+02 1.965811569251543176e+02 1.968727411265432181e+02 1.971404012345678893e+02 1.974324845679012412e+02 1.977336926118827307e+02 1.980958550347222342e+02 1.984741092785493777e+02 1.988013541666666697e+02 1.988013585069444389e+02 1.975278173225308649e+02 1.952937794174382589e+02 1.940149199459876570e+02 1.934159124228395115e+02 1.934420095486111109e+02 1.935144516782407322e+02 1.936831539351851745e+02 1.940055815972222319e+02 1.942055632716049445e+02 1.940823398919753231e+02 1.940325424382716051e+02 1.941230343364197495e+02 1.943399387538580072e+02 1.946828761574074065e+02 1.950525458140432136e+02 1.954579875578703536e+02 1.958828530092592644e+02 1.961629634452160360e+02 1.964523697916666833e+02 1.966806442901234391e+02 1.969203621720679109e+02 1.971547873263888846e+02 1.974233709490740694e+02 1.976995722415123566e+02 1.980447005208333167e+02 1.984014366319444491e+02 1.986763271604938268e+02 1.984046325231481376e+02 1.963648210841049320e+02 1.941837446952160633e+02 1.932624985532407322e+02 1.930138937114197688e+02 1.929109818672839367e+02 1.927885185185185151e+02 1.929169550540123623e+02 1.932190591242284086e+02 1.934080849729938336e+02 1.934172410300925833e+02 1.933506221064814952e+02 1.933563483796296509e+02 1.934999532214506246e+02 1.937788985339506098e+02 1.941801171875000023e+02 1.946262499999999989e+02 1.950470780285493788e+02 1.954442578124999841e+02 1.957297747878086511e+02 1.960130054012345795e+02 1.962489120370370586e+02 1.964824194637345727e+02 1.967550810185184957e+02 1.970219651813271469e+02 1.973128930362654216e+02 1.976465133101851848e+02 1.980006852816358105e+02 1.983877898341049502e+02 1.984762080439814724e+02 1.972799893904320925e+02 1.948436019483024779e+02 1.931603370949074190e+02 1.926713946759259386e+02 1.924932479745370415e+02 1.923490142746913705e+02 1.922305478395061868e+02 1.922448398919753174e+02 1.924172786458333348e+02 1.926267891589506007e+02 1.926346899112654398e+02 1.926441001157407413e+02 1.927275959683641986e+02 1.929305849729938132e+02 1.932634037422839413e+02 1.937335228587962774e+02 1.941756018518518374e+02 1.945811554783950612e+02 1.949311024305555691e+02 1.952408863811728281e+02 1.955277314814814815e+02 1.958045587384259250e+02 1.961125400270061903e+02 1.964261077353395137e+02 1.967143856095678984e+02 1.970390533371913762e+02 1.973807479745370586e+02 1.977344796489197449e+02 1.981542476851851688e+02 1.983517298418209975e+02 1.976858815586419666e+02 1.952253438464506416e+02 1.933995953896605045e+02 1.927249329668210009e+02 1.925601630015432022e+02 1.924746223958333360e+02 1.924249734760802255e+02 1.924934047067901304e+02 1.928724754050925867e+02 1.929395100308641986e+02 1.929337384259259238e+02 1.928823828124999977e+02 1.929373688271604976e+02 1.934342973572530866e+02 1.938315682870370438e+02 1.942913546489197643e+02 1.947184664351851779e+02 1.950684259259259079e+02 1.953719589120370586e+02 1.956664231288580140e+02 1.959546961805555441e+02 1.962229851466049126e+02 1.964750192901234698e+02 1.967604311342592496e+02 1.970771672453703900e+02 1.973893108603394921e+02 1.977710624035493936e+02 1.981528057484567853e+02 1.981823514660493686e+02 1.970146190200617298e+02 1.947493860918209805e+02 1.935879788773148107e+02 1.932010079089506007e+02 1.930764853395061778e+02 1.930844864004629642e+02 1.932436193094135888e+02 1.935617052469135899e+02 1.938199729938271503e+02 1.938544728973765245e+02 1.938051977237654455e+02 1.937399522569444343e+02 1.938101663773148005e+02 1.940326089891975414e+02 1.943607489390432193e+02 1.947672492283950874e+02 1.952140596064814986e+02 1.956055608603395228e+02 1.959363503086419769e+02 1.962134379822530832e+02 1.964547313850308683e+02 1.966920360725308683e+02 1.969233179012345545e+02 1.971587490354938268e+02 1.974343089313271662e+02 1.977493422067901179e+02 1.980839414544753083e+02 1.984343176118827046e+02 1.982600371334876570e+02 1.963130468749999977e+02 1.941349551504629574e+02 1.931105762924382816e+02 1.928972723765432136e+02 1.928604697145061664e+02 1.928626586612654421e+02 1.929390962577160451e+02 1.931361467978395012e+02 1.933004465663580334e+02 1.933218287037037157e+02 1.932720500578703593e+02 1.932472487461419917e+02 1.933818494405864215e+02 1.937028091242283949e+02 1.940525347222222194e+02 1.944578756751543267e+02 1.948559273726851870e+02 1.952263941936728600e+02 1.955732899305555748e+02 1.958474855324074042e+02 1.960940002893518681e+02 1.963572815393518738e+02 1.966365205439815043e+02 1.969099966242283983e+02 1.971942177854938336e+02 1.975174546682098651e+02 1.978649006558642043e+02 1.982216242283950578e+02 1.984268995949074110e+02 1.977636574074074076e+02 1.952840692515432295e+02 1.934867066936728293e+02 1.928921532600308524e+02 1.927078399884259454e+02 1.926259582368826955e+02 1.925526075424382668e+02 1.925759510030864021e+02 1.927557634066358219e+02 1.929128380594135876e+02 1.929607291666666526e+02 1.929429562114197552e+02 1.930113859953703752e+02 1.934061043595679052e+02 1.935725380979938279e+02 1.939852719907407277e+02 1.944200892168209975e+02 1.948005304783950464e+02 1.955444613233024711e+02 1.958642298418209862e+02 1.961667959104938177e+02 1.964692250192901213e+02 1.967741792052469236e+02 1.970753573495370290e+02 1.973571735146605022e+02 1.976641251929012526e+02 1.979948480902777703e+02 1.983590094521604783e+02 1.987100766782407391e+02 1.985642168209876388e+02 1.967636342592592769e+02 1.945938016010802301e+02 1.935964650848765416e+02 1.933170760995370472e+02 1.931719015239197574e+02 1.930489723186728384e+02 1.929895775462962888e+02 1.930747087191357991e+02 1.932338011188271594e+02 1.932622371720678984e+02 1.932385696373456767e+02 1.932315528549382861e+02 1.932975713734567762e+02 1.936518576388888846e+02 1.938199368248456835e+02 1.941983651620370495e+02 1.945332243441358173e+02 1.948942182677469077e+02 1.952277073688271400e+02 1.955611366705247178e+02 1.958378848379629460e+02 1.961112644675925765e+02 1.963843817515432022e+02 1.966704836998456756e+02 1.969706963734567751e+02 1.973020582561728418e+02 1.976332185570987576e+02 1.980095982831790025e+02 1.983411120756172750e+02 1.985076191165123305e+02 1.978161979166666526e+02 1.955604822530864055e+02 1.940615436921296464e+02 1.936206394675925822e+02 1.934959268904320879e+02 1.934980623070987633e+02 1.935657831790123566e+02 1.937765813078703729e+02 1.939689457947530968e+02 1.939957190393518545e+02 1.938757865547839572e+02 1.937692370756172693e+02 1.937837471064814849e+02 1.939270852623456847e+02 1.944141777584876536e+02 1.945825964506172738e+02 1.948964708719135785e+02 1.952264453125000045e+02 1.955305782214506110e+02 1.957809968171296191e+02 1.960171233603394967e+02 1.962388985339506178e+02 1.964304552469135672e+02 1.966530729166666731e+02 1.968941174768518465e+02 1.972120838155863964e+02 1.975109056712963138e+02 1.978649406828703547e+02 1.978199864969135717e+02 1.964365065586419803e+02 1.942678317901234664e+02 1.931582663001543381e+02 1.927464125192901179e+02 1.926364048032407652e+02 1.926368291859567705e+02 1.927002464313271446e+02 1.928954475308642031e+02 1.930519405864197324e+02 1.930577382330247076e+02 1.929722347608024791e+02 1.929477271412036998e+02 1.930340523726851814e+02 1.932679108796296248e+02 1.936244029706790002e+02 1.940351919367284097e+02 1.947222632137345784e+02 1.948746662808642043e+02 1.951353038194444309e+02 1.953656958912036998e+02 1.957987688078703741e+02 1.960347791280864271e+02 1.962883347800925833e+02 1.965745124421296453e+02 1.968601369598765416e+02 1.971807870370370495e+02 1.975187157600308581e+02 1.976941922260802471e+02 1.969353264853395160e+02 1.945702715084876502e+02 1.928419864004629574e+02 1.922606303047839731e+02 1.921416603973765405e+02 1.920771749614197574e+02 1.920102242476851870e+02 1.920467356288580447e+02 1.922145568094135797e+02 1.923497145061728588e+02 1.923601297260802312e+02 1.923125347222222388e+02 1.923589742476851825e+02 1.925054070216049240e+02 1.927861106288580402e+02 1.931734592013888800e+02 1.935905849729938097e+02 1.939857952353395092e+02 1.946051427469135717e+02 1.947487355324074088e+02 1.949743764467592655e+02 1.951903766396605135e+02 1.954367153742284131e+02 1.957095119598765507e+02 1.960103925540123555e+02 1.963229788773148243e+02 1.966396739969135865e+02 1.969699464699073985e+02 1.973281876929012526e+02 1.974754798418209703e+02 1.966068590856481535e+02 1.941833444251543312e+02 1.925235426311728588e+02 1.920867751736111302e+02 1.919732614776234527e+02 1.919194757908950635e+02 1.918657682291666617e+02 1.919393364197530900e+02 1.921593976658950567e+02 1.923098379629629733e+02 1.923157566550925992e+02 1.922811347415123464e+02 1.923327141203703547e+02 1.925051649305555657e+02 1.928207585841049365e+02 1.932211771797839504e+02 1.936430107060185151e+02 1.940346190200617400e+02 1.943863343942901167e+02 1.949321310763888846e+02 1.950555068479938257e+02 1.952755758101851882e+02 1.955221585648148164e+02 1.957639679783950726e+02 1.960083188657407334e+02 1.963075998263888948e+02 1.966140133101851859e+02 1.969753448109568126e+02 1.973375274884259341e+02 1.974708936149691283e+02 1.966772477816357991e+02 1.943661578896605135e+02 1.927990282600308660e+02 1.923822998649691272e+02 1.922650183256172909e+02 1.922883921682098674e+02 1.924121720679012526e+02 1.926643094135802414e+02 1.929418479938271673e+02 1.930018070023148198e+02 1.928900602816358116e+02 1.927882957175926038e+02 1.928019029706790093e+02 1.929708555169753197e+02 1.932530299961419757e+02 1.936247685185185219e+02 1.940316618441358116e+02 1.944161342592592518e+02 1.947304306520061914e+02 1.950361868248456574e+02 1.955162480709876434e+02 1.956235378086419701e+02 1.958043422067901247e+02 1.962276268325617252e+02 1.965168451003086432e+02 1.968848046874999795e+02 1.972137297453703582e+02 1.971404856288580447e+02 1.955849599729938291e+02 1.933764404899691272e+02 1.922891353202160474e+02 1.920501673418209805e+02 1.920012316743827228e+02 1.920427729552469032e+02 1.922303052662036862e+02 1.925589916087963047e+02 1.927818195408950714e+02 1.927568041087963024e+02 1.926421976273148005e+02 1.925993176118827250e+02 1.926969155092592700e+02 1.929406283757715812e+02 1.932932749807098674e+02 1.937514236111111074e+02 1.941620384837962945e+02 1.945026326195987565e+02 1.948143094135802471e+02 1.950634283371913398e+02 1.953139694251543119e+02 1.955425212191358071e+02 1.960429258294753083e+02 1.961587475887345704e+02 1.963657108410493777e+02 1.966483024691357855e+02 1.969867930169752981e+02 1.971646479552469202e+02 1.964908858989197427e+02 1.939683550347222081e+02 1.920887012924382589e+02 1.915402281057098719e+02 1.913666570216049365e+02 1.912903496334876650e+02 1.928807855902777817e+02 1.952049551504629505e+02 1.975192886766975278e+02 1.978430087770061903e+02 1.979121638695987713e+02 1.979010609567901326e+02 1.979645621141975198e+02 1.981350115740740705e+02 1.984091454475308467e+02 1.988261974344135865e+02 1.992738392168209884e+02 1.996858641975308615e+02 2.000723225308641986e+02 2.003452054398148050e+02 2.006212991898148061e+02 2.008755343364197472e+02 2.011058116319444196e+02 2.013652097800926128e+02 2.016262688078703604e+02 2.021732171103395217e+02 2.023146913580247030e+02 2.026113006365740716e+02 2.029134707754629687e+02 2.026507190393518272e+02 2.004679841820987747e+02
5.165590326003086119e+01 5.166624035493826739e+01 5.185514033564814440e+01 5.250477285879629363e+01 5.358272617669752691e+01 5.415700327932098901e+01 5.456107108410493822e+01 5.492113329475309058e+01 5.527617380401234470e+01 5.562195505401234641e+01 5.598313994984567898e+01 5.636897472993827307e+01 5.675638165509259636e+01 5.720872058256172465e+01 5.959862702546296731e+01 5.987804591049382452e+01 5.921696325231481239e+01 5.597460310570988185e+01 5.231324652777777828e+01 5.007402150848765388e+01 5.053997878086420315e+01 5.074206934799382651e+01 5.087868730709876530e+01 5.099155333719135541e+01 5.131636429398148636e+01 5.177779465663579828e+01 5.207759355709876559e+01 5.218999373070987957e+01 5.233677228009259608e+01 5.265967062114197006e+01 5.321547309027777573e+01 5.419540943287037038e+01 5.422895688657407476e+01 5.459236786265432073e+01 5.517560763888889142e+01 5.557478973765432073e+01 5.592148389274691311e+01 5.630043016975308490e+01 5.665438512731481779e+01 5.702157310956790326e+01 5.733423321759259750e+01 5.768338011188271963e+01 5.806821132330247082e+01 5.851103877314815094e+01 5.900704909336419490e+01 5.951255545910493794e+01 5.989340615354938535e+01 5.960995322145061692e+01 5.730924768518519130e+01 5.476665364583333684e+01 5.355566454475308547e+01 5.321107156635802227e+01 5.317701147762345215e+01 5.319479359567900900e+01 5.331913001543210129e+01 5.356407214506172920e+01 5.378978829089506064e+01 5.383435522762345471e+01 5.381014853395061692e+01 5.381710889274691567e+01 5.398126302083333172e+01 5.429914110725308518e+01 5.518900607638889255e+01 5.531606770833333542e+01 5.585322337962962536e+01 5.628505642361110972e+01 5.663998456790123726e+01 5.692901668595678899e+01 5.721838204089506519e+01 5.750241560570987787e+01 5.782912712191357940e+01 5.817384500385801971e+01 5.853790798611111512e+01 5.896050925925926123e+01 5.944511815200617377e+01 5.996141348379629221e+01 6.018638551311728691e+01 5.936366415895061976e+01 5.670932773919753345e+01 5.488132716049383220e+01 5.428852334104938393e+01 5.412482638888889142e+01 5.418292341820987446e+01 5.438173659336419519e+01 5.477185908564814554e+01 5.510167631172839720e+01 5.514720100308641548e+01 5.500417197145061721e+01 5.490708863811728691e+01 5.495178530092592695e+01 5.515197723765432158e+01 5.549552228009259380e+01 5.598771412037037010e+01 5.688362509645061493e+01 5.707113522376543102e+01 5.742839168595678956e+01 5.776247347608024540e+01 5.804694878472222541e+01 5.830061921296295679e+01 5.853674093364197262e+01 5.883348524305555571e+01 5.921570891203703724e+01 5.969986545138889511e+01 6.014714699074073678e+01 5.995355420524690970e+01 5.783495081018518391e+01 5.529288435570987303e+01 5.414534432870370750e+01 5.376456211419753117e+01 5.367820167824073962e+01 5.375897714120370097e+01 5.399122154706790155e+01 5.433865547839506149e+01 5.452818238811728691e+01 5.450175781250000284e+01 5.438894868827160423e+01 5.437339843750000057e+01 5.450794270833333144e+01 5.479743923611111001e+01 5.522259211033951232e+01 5.569186246141975261e+01 5.619028983410493794e+01 5.665295814043209788e+01 5.706771797839505922e+01 5.774512297453703269e+01 5.789668402777777345e+01 5.814644000771604482e+01 5.842049672067901156e+01 5.874174093364197802e+01 5.911967206790123441e+01 5.957190682870370324e+01 6.000811053240740733e+01 5.973794656635802625e+01 5.721734133873457040e+01 5.448823350694444656e+01 5.323927854938271054e+01 5.289241898148148380e+01 5.279114969135802227e+01 5.274706404320988185e+01 5.279007474922839549e+01 5.299765383873457125e+01 5.323467158564815094e+01 5.332319637345679553e+01 5.330130401234568183e+01 5.334232542438271452e+01 5.350470148533950976e+01 5.383824749228394779e+01 5.428250337577160423e+01 5.479147183641975261e+01 5.530222656249999602e+01 5.573590422453703752e+01 5.617011332947530633e+01 5.651819058641975602e+01 5.687748070987654359e+01 5.723993682484567813e+01 5.799584104938271167e+01 5.815775462962962905e+01 5.846220052083332774e+01 5.879104311342592126e+01 5.920048273533950578e+01 5.966816743827160252e+01 5.993736352237654330e+01 5.913508873456790127e+01 5.593180266203704321e+01 5.365126784336419519e+01 5.265732108410493595e+01 5.246238763503086489e+01 5.241102768132716250e+01 5.234181568287036868e+01 5.238391637731481154e+01 5.257735243055555685e+01 5.276445408950617377e+01 5.283868537808641719e+01 5.284876302083333144e+01 5.293504870756173375e+01 5.315452546296295822e+01 5.352862654320987446e+01 5.402923852237654501e+01 5.457082465277777317e+01 5.506288966049382338e+01 5.552965904706790212e+01 5.594965422453703496e+01 5.631971595293209987e+01 5.664857494212962763e+01 5.701838638117283864e+01 5.738571469907407874e+01 5.815950761959876303e+01 5.834127797067900900e+01 5.866897907021605363e+01 5.906015335648147868e+01 5.947314718364197006e+01 5.993398051697531059e+01 6.020094521604938365e+01 5.938493586033950322e+01 5.365626880787036868e+01 5.279759886188271167e+01 5.256778404706790297e+01 5.250267312885802085e+01 5.243547694830246542e+01 5.247863908179012071e+01 5.267944299768518590e+01 5.283324122299382708e+01 5.285471354166666202e+01 5.282106433256173261e+01 5.285200327932098929e+01 5.304596257716048768e+01 5.341557195216049791e+01 5.389623746141975147e+01 5.441677662037037067e+01 5.490047743055555429e+01 5.539105758101851507e+01 5.578645881558642117e+01 5.613344184027777573e+01 5.644986255787036811e+01 5.678356674382715852e+01 5.713573688271604567e+01 5.789763503086419405e+01 5.806327835648147584e+01 5.840620418595679553e+01 5.876966676311728577e+01 5.923193913966048996e+01 5.969044704861111228e+01 5.965752314814815094e+01 5.791452883873456869e+01 5.478729600694444457e+01 5.313732011959876900e+01 5.269942997685185304e+01 5.258075038580246741e+01 5.264040412808642344e+01 5.283225212191357656e+01 5.317263358410493623e+01 5.342879340277777800e+01 5.341621190200617519e+01 5.326409095293210072e+01 5.320164978780864118e+01 5.331129147376543642e+01 5.358960069444444940e+01 5.401665750385802767e+01 5.453002218364197518e+01 5.501402536651234243e+01 5.550924527391975261e+01 5.590570360725308774e+01 5.624705584490740762e+01 5.658043306327160593e+01 5.689135802469135683e+01 5.719781298225309030e+01 5.753338493441358281e+01 5.827229214891975317e+01 5.847785590277777601e+01 5.886301649305556083e+01 5.926697723765432357e+01 5.923204523533950550e+01 5.729019627700617434e+01 5.428084297839506434e+01 5.264614920910494078e+01 5.213337480709876814e+01 5.204531635802469225e+01 5.213211660879629505e+01 5.230449990354937739e+01 5.262004147376543273e+01 5.291666329089505894e+01 5.297485243055555060e+01 5.290270447530863862e+01 5.288442081404321016e+01 5.303430796682098958e+01 5.336331066743827023e+01 5.384893132716049280e+01 5.437848427854938649e+01 5.492514853395061891e+01 5.548797550154321101e+01 5.594465952932098674e+01 5.634640142746913227e+01 5.669640625000000256e+01 5.702786795910493822e+01 5.736239728009259409e+01 5.772361352237653875e+01 5.810921344521604937e+01 5.848819685570987303e+01 5.938129002700617320e+01 5.963627700617283978e+01 5.996406780478395149e+01 5.953770109953703837e+01 5.652887924382716278e+01 5.354085310570987843e+01 5.236530864197531088e+01 5.189435667438271338e+01 5.182666087962962820e+01 5.184497588734568296e+01 5.203767023533950464e+01 5.229197096836419689e+01 5.238678771219135655e+01 5.239139901620370665e+01 5.242916232638889085e+01 5.262904176311728577e+01 5.299292197145061323e+01 5.350116126543209560e+01 5.410753038194444287e+01 5.465165846836419661e+01 5.514301118827160053e+01 5.555772087191358111e+01 5.593481047453703781e+01 5.631146701388888687e+01 5.668363184799382992e+01 5.706449170524690828e+01 5.744079523533950749e+01 5.783257571373457040e+01 5.825520929783950663e+01 5.874596643518518846e+01 5.968545621141975488e+01 5.993536940586420059e+01 5.997977719907407845e+01 5.829295524691358565e+01 5.488358892746913398e+01 5.284113184799382879e+01 5.226842737268518846e+01 5.211092689043209703e+01 5.207637008101852416e+01 5.208302179783950692e+01 5.225654755015432329e+01 5.253064429012345471e+01 5.270791087962962962e+01 5.270682532793210129e+01 5.270364101080246400e+01 5.281387201003086318e+01 5.308620756172839350e+01 5.355124710648148323e+01 5.406982831790123356e+01 5.461727575231481779e+01 5.515699074074074559e+01 5.557797309027777999e+01 5.595966628086419803e+01 5.631636863425925554e+01 5.665482928240740534e+01 5.698620370370370125e+01 5.731804253472222399e+01 5.767149450231481467e+01 5.807950327932098844e+01 5.852903115354938279e+01 5.903325617283950066e+01 5.995401716820987303e+01 5.992246238425926208e+01 5.838852575231481268e+01 5.514983555169752805e+01 5.338562210648148465e+01 5.277846305941358196e+01 5.264950713734567245e+01 5.270257812500000227e+01 5.289422164351852018e+01 5.327530237268518221e+01 5.359137635030863578e+01 5.364174575617283836e+01 5.352869839891975090e+01 5.345900607638888857e+01 5.354745515046296589e+01 5.379753038194444059e+01 5.418598765432098929e+01 5.467462094907406822e+01 5.521205343364197660e+01 5.575461950231481012e+01 5.618441647376543102e+01 5.653757764274691056e+01 5.687332272376543330e+01 5.719837239583333144e+01 5.754329957561728293e+01 5.785645881558641435e+01 5.820341531635802568e+01 5.860611496913580254e+01 5.909963686342592126e+01 5.957377363040123441e+01 5.957150704089506377e+01 5.714683834876543500e+01 5.459434510030864374e+01 5.297276234567901554e+01 5.241206163194444656e+01 5.229865499614197688e+01 5.233249035493827250e+01 5.247187548225308262e+01 5.308083043981481808e+01 5.315778356481481381e+01 5.307751543209876388e+01 5.305102671682099214e+01 5.317202980324073991e+01 5.347623842592592780e+01 5.393249517746913568e+01 5.443774932484568296e+01 5.503566695601851677e+01 5.550213734567901014e+01 5.594556616512345215e+01 5.633200858410493339e+01 5.673378761574073792e+01 5.708212577160493595e+01 5.741029851466049649e+01 5.777830439814814412e+01 5.813203173225308262e+01 5.852015383873456500e+01 5.899859664351851762e+01 5.950464313271604766e+01 5.986689043209877070e+01 5.936074845679011958e+01 5.622406298225308774e+01 5.282718074845679013e+01 5.237083912037036981e+01 5.204961660879629903e+01 5.194465518904321044e+01 5.189272521219135825e+01 5.192940393518518505e+01 5.215836130401234527e+01 5.242217447916667084e+01 5.249398582175926009e+01 5.248871286651235124e+01 5.252530623070987303e+01 5.272535686728394921e+01 5.307288917824074304e+01 5.353867525077160394e+01 5.408333140432098674e+01 5.462598572530863805e+01 5.506476610725308518e+01 5.552631847993826852e+01 5.588164785879629903e+01 5.622570842978394978e+01 5.655697000385802653e+01 5.693211612654321385e+01 5.732851803626542875e+01 5.770203800154320817e+01 5.811621238425926350e+01 5.858330198688271651e+01 5.913450038580246826e+01 5.955549479166666060e+01 5.939037615740740250e+01 5.689974585262345386e+01 5.402506558641974976e+01 5.184330825617283978e+01 5.181919801311728691e+01 5.183039689429012498e+01 5.183366898148148749e+01 5.189256413966049308e+01 5.212810860339506291e+01 5.244923466435185588e+01 5.259829378858024995e+01 5.258595003858025052e+01 5.261548755787037379e+01 5.277050202546296731e+01 5.311040943287036953e+01 5.360282600308642031e+01 5.417326581790123186e+01 5.468332079475308660e+01 5.520212384259259153e+01 5.561587094907407192e+01 5.596157069830246655e+01 5.629698398919752833e+01 5.665476321373456869e+01 5.700850308641975062e+01 5.736178047839506178e+01 5.773531057098765018e+01 5.811237847222222541e+01 5.857942660108025024e+01 5.909176359953703894e+01 5.954140383873456699e+01 5.960966772762346011e+01 5.810922694830247082e+01 5.506004629629629221e+01 5.329445746527777317e+01 5.219766927083333030e+01 5.230706066743827165e+01 5.250822579089506803e+01 5.279391734182099327e+01 5.325009837962962678e+01 5.358310956790123214e+01 5.348298611111111001e+01 5.342119261188271651e+01 5.352052951388888857e+01 5.380263165509258982e+01 5.421056134259259096e+01 5.469216772762345613e+01 5.522818865740740790e+01 5.576704909336419291e+01 5.617530092592592439e+01 5.655505449459876388e+01 5.687170042438271622e+01 5.716913821373456983e+01 5.747583140432099214e+01 5.781493537808642458e+01 5.818643422067901128e+01 5.862892891589506661e+01 5.910308352623457040e+01 5.951109278549382964e+01 5.926834780092593036e+01 5.670000000000000284e+01 5.371234133873456784e+01 5.243842689043210470e+01 5.209313850308642202e+01 5.199860146604938649e+01 5.193597704475308774e+01 5.212100790895062374e+01 5.253801359953703809e+01 5.283528549382715767e+01 5.285919656635802255e+01 5.278722559799382452e+01 5.279939814814814980e+01 5.298172935956790042e+01 5.331735677083333513e+01 5.377910059799382481e+01 5.433134934413580197e+01 5.487326051311728037e+01 5.539672260802469594e+01 5.577546006944444201e+01 5.614848186728395518e+01 5.645282069830246741e+01 5.675985146604937626e+01 5.710771942515432187e+01 5.743776138117284091e+01 5.781055169753086886e+01 5.824064718364197546e+01 5.872506413966048910e+01 5.923788966049382054e+01 5.939697627314814810e+01 5.803600308641975403e+01 5.459182581018518476e+01 5.238292582947531173e+01 5.171830005787036555e+01 5.151130208333333371e+01 5.140476996527777942e+01 5.132970920138888715e+01 5.141148582175925696e+01 5.164329427083333002e+01 5.194185136959876559e+01 5.198927420910494135e+01 5.200436342592593064e+01 5.210086275077160423e+01 5.235003520447530434e+01 5.273432436342592666e+01 5.329516010802469594e+01 5.385077835648147726e+01 5.434473958333332888e+01 5.479000964506172977e+01 5.518188416280864317e+01 5.555115885416666544e+01 5.589297984182098844e+01 5.624549479166666544e+01 5.665408420138888346e+01 5.703081886574074133e+01 5.744873022762345727e+01 5.789171296296296276e+01 5.836068335262345386e+01 5.889685426311728378e+01 5.917703993055555856e+01 5.843778452932098588e+01 5.516328607253086602e+01 5.269044753086419774e+01 5.173775462962963445e+01 5.152636525848765814e+01 5.147746479552468912e+01 5.148912037037037237e+01 5.161305459104938365e+01 5.216424430941358281e+01 5.227844618055555515e+01 5.229672405478395092e+01 5.225316020447530718e+01 5.227518277391975232e+01 5.287058207947530519e+01 5.335003858024690970e+01 5.392030960648148152e+01 5.443185233410493851e+01 5.487581548996913483e+01 5.527330729166666856e+01 5.562378423996914023e+01 5.597103153935185560e+01 5.629816743827160508e+01 5.662753761574074218e+01 5.697046199845679126e+01 5.738217351466049365e+01 5.779560860339506689e+01 5.829506896219135825e+01 5.882343171296296447e+01 5.891793113425925554e+01 5.754507667824073991e+01 5.448434895833333513e+01 5.281394097222222683e+01 5.225847511574073678e+01 5.211114052854937739e+01 5.218427565586419803e+01 5.244435281635801971e+01 5.289072530864196864e+01 5.326918836805555202e+01 5.337880160108024796e+01 5.330538387345679041e+01 5.322176793981481779e+01 5.331756558641975374e+01 5.358208478009259323e+01 5.397947241512345329e+01 5.449354166666666544e+01 5.502732011959876246e+01 5.552328221450617463e+01 5.595244791666667084e+01 5.633040991512345386e+01 5.665999565972222030e+01 5.696028645833333570e+01 5.725632812499999602e+01 5.757191454475308490e+01 5.791314863040123839e+01 5.832351803626543330e+01 5.879135368441357912e+01 5.923377073688271821e+01 5.908913869598764990e+01 5.662070794753086744e+01 5.363700376157407845e+01 5.216914400077160252e+01 5.185144193672839208e+01 5.185867959104938052e+01 5.195717110339506206e+01 5.210002411265431732e+01 5.240310474537037067e+01 5.266063705632716108e+01 5.271883439429012697e+01 5.265268277391975005e+01 5.256674479166666458e+01 5.275920476466049536e+01 5.316074990354938024e+01 5.364186246141974834e+01 5.414346305941357684e+01 5.465570457175925867e+01 5.512328896604938677e+01 5.557012056327160821e+01 5.592381606867283494e+01 5.623064621913579941e+01 5.655073784722222285e+01 5.690317901234568154e+01 5.725640528549382680e+01 5.760061631944444827e+01 5.801650414737654415e+01 5.846728298611111541e+01 5.897393759645061806e+01 5.929045765817900815e+01 5.854519868827160423e+01 5.519820023148148636e+01 5.272715277777777487e+01 5.186951581790123100e+01 5.165453655478395234e+01 5.160904272762345357e+01 5.158632860725308689e+01 5.165609905478395092e+01 5.192419511959876388e+01 5.217081500771605107e+01 5.223665075231480870e+01 5.222395736882715767e+01 5.229147714120369983e+01 5.278541907793209731e+01 5.302209635416666345e+01 5.355003086419753089e+01 5.407873167438271622e+01 5.455111352237654643e+01 5.547467351466048768e+01 5.585855420524691084e+01 5.626022907021604880e+01 5.661999228395061579e+01 5.698088638117283722e+01 5.735544897762345329e+01 5.773021315586419888e+01 5.813764756944444656e+01 5.856673273533950663e+01 5.904864438657406822e+01 5.952127121913580510e+01 5.941612316743827193e+01 5.710652777777777800e+01 5.402216290509259267e+01 5.263632282021605135e+01 5.224850019290123981e+01 5.213633294753086744e+01 5.208735291280864743e+01 5.206624228395061493e+01 5.223747058256172693e+01 5.249334924768518107e+01 5.259013069058642031e+01 5.257093026620370324e+01 5.257126736111111143e+01 5.268969666280864317e+01 5.315816695601851904e+01 5.338448061342592155e+01 5.383490113811728150e+01 5.427495129243827421e+01 5.471477189429012356e+01 5.517001157407407419e+01 5.558812307098765615e+01 5.594775414737654273e+01 5.627959683641975630e+01 5.661816599151234186e+01 5.698198061342592524e+01 5.734064573688271338e+01 5.774704619984568410e+01 5.816970003858024540e+01 5.866942853009258840e+01 5.912280092592592240e+01 5.934898582175925696e+01 5.853537567515432016e+01 5.548285879629629846e+01 5.338871286651234982e+01 5.273139853395061749e+01 5.256499131944444514e+01 5.263344714506173005e+01 5.278298996913580510e+01 5.309044560185185446e+01 5.340128327546296561e+01 5.349761188271604340e+01 5.336939718364197915e+01 5.325397472993827108e+01 5.328408420138888602e+01 5.347251446759259608e+01 5.414059510030863720e+01 5.439399884259259466e+01 5.479561294367283608e+01 5.520514033564814582e+01 5.558292293595678757e+01 5.593256655092592666e+01 5.622997058256173375e+01 5.649933159722221632e+01 5.676014419367283637e+01 5.704120756172839179e+01 5.735297598379629846e+01 5.777061824845679183e+01 5.816552854938272077e+01 5.862907552083333940e+01 5.863426263503086489e+01 5.687826485339505922e+01 5.382896749614197773e+01 5.226441695601852189e+01 5.171743200231481552e+01 5.166683690200617463e+01 5.176061294367283949e+01 5.189478877314814298e+01 5.216747492283951004e+01 5.242749517746914023e+01 5.248723042052468912e+01 5.239370611496913455e+01 5.234832851080246741e+01 5.244906394675926009e+01 5.272031539351851848e+01 5.316859085648147953e+01 5.367526282793209447e+01 5.461330680941357940e+01 5.481595437885802369e+01 5.512661603009259181e+01 5.540363618827160508e+01 5.593575713734567501e+01 5.622141830632715909e+01 5.651912615740740620e+01 5.685252121913580226e+01 5.720617332175925895e+01 5.761052758487654302e+01 5.807357253086419746e+01 5.832698061342592410e+01 5.745813753858024597e+01 5.419996431327160025e+01 5.188446325231481637e+01 5.104371238425925839e+01 5.091972704475308120e+01 5.092753713348765388e+01 5.091389612268518761e+01 5.101564621913580311e+01 5.126240162037037607e+01 5.146971257716049308e+01 5.151599440586419831e+01 5.147513599537036555e+01 5.152047260802469708e+01 5.171773678626543358e+01 5.206778694058641577e+01 5.254288676697530747e+01 5.305693190586419661e+01 5.355551793981481268e+01 5.441462770061728804e+01 5.460366367669752918e+01 5.488325424382716022e+01 5.515141203703704065e+01 5.544051263503086346e+01 5.577458188657407590e+01 5.613022955246913881e+01 5.651130449459876814e+01 5.691426022376543159e+01 5.735008053626543756e+01 5.782251012731481410e+01 5.804726321373456699e+01 5.701083140432098872e+01 5.368061197916666316e+01 5.150113667052469424e+01 5.088148823302469026e+01 5.075487364969136195e+01 5.078728057484568126e+01 5.081858410493826739e+01 5.093894675925925952e+01 5.125695987654321328e+01 5.148327980324074105e+01 5.149889274691358310e+01 5.146886959876542988e+01 5.152368682484568296e+01 5.172724971064814525e+01 5.210701099537037351e+01 5.260519772376542846e+01 5.311496865354938279e+01 5.360320457175925668e+01 5.402577980324073792e+01 5.476628665123456585e+01 5.494721113040123583e+01 5.519852719907407845e+01 5.548243344907407248e+01 5.577852189429012242e+01 5.609219666280863947e+01 5.643755642361111313e+01 5.682838493441358452e+01 5.726919753086419718e+01 5.775639274691358338e+01 5.795762345679012384e+01 5.703188464506173005e+01 5.387856433256173005e+01 5.180249662422839663e+01 5.123182146990740904e+01 5.109506028163580282e+01 5.120372685185185446e+01 5.142205150462963559e+01 5.179179060570987758e+01 5.217397955246913455e+01 5.229248456790123356e+01 5.218788483796296163e+01 5.206596161265431988e+01 5.208087625385802255e+01 5.228239920910493765e+01 5.262987364969136195e+01 5.309097849151234527e+01 5.359778694058641690e+01 5.406610194830246741e+01 5.447994791666666714e+01 5.486129484953703894e+01 5.551650462962962962e+01 5.566605565200617178e+01 5.588357397762345613e+01 5.639980613425925782e+01 5.677164544753086517e+01 5.724066599151235124e+01 5.769744309413579941e+01 5.764784529320987616e+01 5.571388985339506661e+01 5.273222559799382481e+01 5.128130787037036953e+01 5.093625868055556083e+01 5.093041811342592240e+01 5.107671055169753060e+01 5.138344039351851933e+01 5.184959394290122958e+01 5.218048514660493709e+01 5.217157648533950720e+01 5.204742332175926123e+01 5.199163676697530434e+01 5.209673273533950066e+01 5.240136815200617804e+01 5.282887586805555458e+01 5.339076678240740392e+01 5.390817322530863720e+01 5.436367428626542875e+01 5.476086275077160792e+01 5.508652633101851848e+01 5.540183931327160138e+01 5.567615547839506007e+01 5.631430989583333258e+01 5.646527970679012043e+01 5.674560185185185190e+01 5.710163483796296191e+01 5.753959297839505638e+01 5.781281539351851251e+01 5.702253616898148181e+01 5.367096016589506036e+01 5.121562210648147584e+01 5.044049286265432386e+01 5.024329909336420030e+01 5.022913387345678871e+01 5.173607494212962621e+01 5.374688705632716079e+01 5.583718749999999886e+01 5.618696373456789672e+01 5.624330391589506206e+01 5.618558641975308632e+01 5.620570505401234840e+01 5.641097800925926009e+01 5.676509693287037095e+01 5.727995322145061863e+01 5.784986062885802482e+01 5.837150366512345556e+01 5.886066840277777601e+01 5.926227141203703752e+01 5.962470775462962536e+01 5.996840760030864459e+01 6.027885947145061607e+01 6.060987316743826625e+01 6.096160300925925668e+01 6.174455246913580453e+01 6.192700569058642657e+01 6.233979745370370296e+01 6.276393856095679524e+01 6.247905623070987247e+01 5.951284288194444372e+01
3.546424575617284081e+00 3.526728877314814881e+00 3.003831983024691343e+00 2.189994695216049170e+00 2.223165027006172689e+00 2.343177565586419764e+00 2.453370466820987694e+00 2.533384934413580591e+00 2.578767843364197176e+00 2.610198206018518263e+00 2.644695216049382847e+00 2.669445891203703791e+00 2.705613908179012039e+00 2.750697337962963118e+00 2.825146122685185279e+00 2.887947048611111178e+00 2.832775366512345627e+00 2.735571469907407405e+00 2.632519772376542999e+00 2.503476562499999947e+00 2.523742283950617615e+00 2.534879436728394886e+00 2.532199074074074296e+00 2.526181520061728136e+00 2.531212866512345450e+00 2.538874903549382722e+00 2.558840181327160401e+00 2.558374807098765302e+00 2.572840952932098801e+00 2.594107349537037255e+00 2.626460262345678753e+00 2.784543306327160295e+00 2.777726176697530747e+00 2.672306134259259114e+00 2.660087770061728474e+00 2.656224922839506064e+00 2.661683063271604865e+00 2.667845293209876623e+00 2.676035397376543390e+00 2.697948013117283939e+00 2.713514178240740815e+00 2.751270254629629264e+00 2.761141493055555785e+00 2.767638888888888982e+00 2.769353298611111125e+00 2.805505401234567930e+00 2.824821084104938151e+00 2.782670235339506082e+00 2.800283564814814774e+00 2.716809413580246968e+00 2.674368248456790109e+00 2.634519193672839599e+00 2.634659047067901216e+00 2.644742959104938063e+00 2.661803626543210122e+00 2.703938078703703951e+00 2.718165509259259149e+00 2.709338348765432336e+00 2.686426022376543266e+00 2.685377604166666377e+00 2.717253568672839847e+00 2.727355324074073994e+00 2.739836516203703720e+00 2.749508101851851904e+00 2.794338831018518654e+00 2.771611689814814650e+00 2.764679783950616976e+00 2.739726080246913664e+00 2.734352816358024629e+00 2.738909143518518441e+00 2.765570023148148149e+00 2.781891878858024914e+00 2.790246913580246790e+00 2.794840374228395152e+00 2.810095486111110930e+00 2.823165027006172778e+00 2.828482349537037255e+00 2.843227237654320838e+00 2.790737364969135825e+00 2.745805362654321069e+00 2.713201195987654302e+00 2.673333815586419693e+00 2.677904610339506331e+00 2.714476273148148433e+00 2.748865258487654728e+00 2.763205536265432194e+00 2.753138020833333144e+00 2.701233121141975335e+00 2.674906442901234360e+00 2.700269097222222303e+00 2.744466145833333481e+00 2.762546296296296333e+00 2.780901331018518441e+00 2.712977430555555625e+00 2.750907600308642120e+00 2.773768325617283814e+00 2.779834104938271544e+00 2.787172550154321193e+00 2.790474537037037184e+00 2.787004243827160721e+00 2.780689621913580378e+00 2.787536168981481488e+00 2.817705439814814472e+00 2.852474440586419746e+00 2.805222318672839776e+00 2.829673032407407529e+00 2.724957561728395206e+00 2.695910976080246879e+00 2.664969618055555767e+00 2.650318287037037202e+00 2.673618827160493705e+00 2.710005787037037095e+00 2.736998939043210122e+00 2.745910976080247146e+00 2.721290991512345769e+00 2.686545138888889017e+00 2.690696373456789914e+00 2.726615547839505993e+00 2.746950231481481541e+00 2.758170814043209962e+00 2.770226176697530907e+00 2.761998456790123679e+00 2.783825231481481310e+00 2.810031828703703827e+00 2.750273919753086105e+00 2.766852334104938471e+00 2.800168788580246648e+00 2.799091917438271793e+00 2.794049479166667016e+00 2.777554976851852153e+00 2.793336709104937921e+00 2.829078414351851922e+00 2.783801118827160526e+00 2.809720775462962727e+00 2.714875578703703773e+00 2.674298804012345432e+00 2.630130208333333552e+00 2.611752507716049720e+00 2.609228877314814898e+00 2.626865354938271224e+00 2.678303915895061671e+00 2.703108603395061760e+00 2.706175733024691166e+00 2.687812982253086513e+00 2.694157021604938418e+00 2.719038869598765729e+00 2.719487847222222143e+00 2.724527391975308799e+00 2.744109760802469378e+00 2.759665316358024700e+00 2.745142264660493936e+00 2.758867669753086282e+00 2.766256269290123360e+00 2.777848668981481417e+00 2.773780864197530782e+00 2.749627700617284010e+00 2.765470679012346000e+00 2.806546585648148184e+00 2.802569444444444446e+00 2.788452932098765658e+00 2.798477044753086673e+00 2.812579571759259434e+00 2.840172164351852047e+00 2.763518036265431910e+00 2.685209297839505904e+00 2.661538387345678824e+00 2.625736882716048992e+00 2.617508680555555856e+00 2.600378086419753210e+00 2.609984567901234342e+00 2.665238715277777448e+00 2.694181134259259203e+00 2.684559702932098890e+00 2.678848379629629850e+00 2.692895929783950759e+00 2.714007040895061618e+00 2.702663483796296173e+00 2.703347318672839616e+00 2.740200617283950368e+00 2.757032214506172974e+00 2.762445023148148326e+00 2.758980034722222197e+00 2.761991705246913398e+00 2.742415123456790393e+00 2.764925250771605114e+00 2.772595968364197638e+00 2.747817804783950546e+00 2.779520640432098677e+00 2.810487075617284169e+00 2.814694733796296422e+00 2.810829957561728598e+00 2.823302951388888982e+00 2.838328993055555305e+00 2.841788676697530658e+00 2.701497395833333481e+00 2.655475019290123306e+00 2.610916763117284045e+00 2.599379822530864192e+00 2.588260513117284223e+00 2.601896701388889177e+00 2.646838831018518690e+00 2.671850405092592418e+00 2.659206693672839350e+00 2.641507040895061831e+00 2.655317804783950741e+00 2.694790702160493545e+00 2.705001929012345929e+00 2.712220775462963029e+00 2.744714023919752943e+00 2.749887635030864086e+00 2.764388020833333126e+00 2.774555844907407032e+00 2.769540895061728403e+00 2.756726948302469449e+00 2.749681230709876800e+00 2.756876446759259025e+00 2.746380208333333073e+00 2.780095003858024771e+00 2.824342689043210175e+00 2.815495273919752961e+00 2.803952064043209624e+00 2.820545910493827080e+00 2.799538966049382793e+00 2.841451581790123360e+00 2.756694155092592968e+00 2.683613040123456805e+00 2.640876736111111178e+00 2.615943769290123289e+00 2.631656539351852064e+00 2.665900848765432318e+00 2.691839795524691326e+00 2.702053915895061831e+00 2.671970968364197674e+00 2.629300250771605008e+00 2.621548514660493545e+00 2.654273244598765569e+00 2.706099054783950741e+00 2.701042631172839492e+00 2.713353105709876534e+00 2.719609375000000107e+00 2.756054687499999822e+00 2.753070023148148415e+00 2.752135416666666945e+00 2.756027199074074119e+00 2.747969714506172778e+00 2.757581983024691485e+00 2.763275945216049134e+00 2.772654803240740762e+00 2.803520929783950510e+00 2.813337191358024736e+00 2.822172067901234538e+00 2.787198591820987392e+00 2.797066936728394904e+00 2.733567226080246826e+00 2.645017843364197319e+00 2.624680748456790003e+00 2.597200520833333304e+00 2.616496431327160366e+00 2.651633391203703560e+00 2.676686921296296262e+00 2.692595968364197567e+00 2.680053530092592506e+00 2.651370081018518565e+00 2.648513213734568161e+00 2.679720293209876480e+00 2.701108699845678807e+00 2.691924189814814738e+00 2.698775077160493918e+00 2.730999228395061706e+00 2.782463348765431999e+00 2.798606770833333535e+00 2.780807291666666625e+00 2.762201003086419693e+00 2.759005111882715688e+00 2.752576678240740815e+00 2.756645929783950510e+00 2.758720100308642120e+00 2.773013117283950280e+00 2.776588541666666465e+00 2.815577256944444606e+00 2.848722993827160543e+00 2.814148823302469182e+00 2.772690007716049454e+00 2.674106867283950528e+00 2.599927662037036846e+00 2.544642650462963118e+00 2.537011959876543266e+00 2.545199170524691024e+00 2.595544463734567930e+00 2.635135030864197425e+00 2.654814814814814738e+00 2.640671296296296600e+00 2.642939332561728527e+00 2.674786844135802255e+00 2.656222029320987943e+00 2.663102334104938240e+00 2.720389178240740780e+00 2.748797260802469111e+00 2.759531732253086567e+00 2.749796006944444482e+00 2.722165316358025056e+00 2.720149980709876569e+00 2.736798321759259078e+00 2.745840567129629761e+00 2.764492669753086496e+00 2.775751350308641729e+00 2.776796392746913256e+00 2.781462673611111214e+00 2.794846643518518192e+00 2.813238811728395294e+00 2.812079475308641996e+00 2.799041280864197567e+00 2.732604648919752854e+00 2.643800636574074048e+00 2.606500289351851851e+00 2.569463252314814650e+00 2.568272087191358022e+00 2.567956211419752943e+00 2.598996913580246648e+00 2.639991319444444429e+00 2.664627700617284045e+00 2.645788001543210033e+00 2.647963927469135559e+00 2.670760995370370150e+00 2.705493344907407671e+00 2.688995466820987890e+00 2.696844618055555642e+00 2.730747492283950528e+00 2.759565489969135754e+00 2.752658661265432016e+00 2.743491994598765249e+00 2.746541280864197354e+00 2.748781346450617225e+00 2.745833333333333126e+00 2.760759066358024594e+00 2.747876639660493669e+00 2.761689332561728438e+00 2.788868152006172885e+00 2.810601851851851851e+00 2.800773051697530658e+00 2.789728009259259345e+00 2.799679783950617118e+00 2.724097222222222392e+00 2.649376929012345450e+00 2.620059317129629584e+00 2.603581693672839759e+00 2.615479841820987694e+00 2.660286940586419568e+00 2.691533564814814650e+00 2.698584104938271722e+00 2.678796296296296120e+00 2.641070119598765586e+00 2.625269579475308479e+00 2.653235918209876587e+00 2.695137442129629690e+00 2.698259066358024594e+00 2.696737557870370505e+00 2.717614776234567930e+00 2.766685956790123413e+00 2.782135416666666750e+00 2.761764564043209802e+00 2.753187692901234662e+00 2.755255111882715990e+00 2.770307677469135754e+00 2.772544849537037059e+00 2.772690489969135808e+00 2.777429591049382473e+00 2.802554012345678913e+00 2.822035108024691485e+00 2.802562692901234609e+00 2.718872974537037024e+00 2.629013792438271491e+00 2.593740837191357951e+00 2.575270543981481808e+00 2.558883584104937992e+00 2.570820312499999982e+00 2.610866608796296173e+00 2.687080439814814703e+00 2.676178626543209926e+00 2.639896315586419906e+00 2.634581404320987641e+00 2.664890528549382687e+00 2.695301890432098890e+00 2.705412326388889177e+00 2.692012924382715777e+00 2.732514467592592311e+00 2.741745756172839776e+00 2.764260706018518476e+00 2.736078800154321033e+00 2.766653163580246932e+00 2.749130979938271491e+00 2.754896797839506473e+00 2.762130594135802752e+00 2.772430073302469378e+00 2.775195312500000178e+00 2.792578607253086265e+00 2.820224247685185315e+00 2.825740258487654089e+00 2.789470486111111480e+00 2.784669656635802681e+00 2.570270543981481470e+00 2.529119888117283832e+00 2.534142071759259096e+00 2.536374903549382775e+00 2.527285397376543230e+00 2.536446759259259220e+00 2.591323784722221912e+00 2.632808641975308728e+00 2.639567418981481506e+00 2.629296875000000089e+00 2.639669174382715866e+00 2.668609182098765409e+00 2.674415509259259416e+00 2.668641493055555536e+00 2.693516589506173009e+00 2.722888213734567575e+00 2.720499131944444482e+00 2.749927662037037202e+00 2.746624228395061706e+00 2.752995273919752961e+00 2.740470679012345645e+00 2.744460358796296351e+00 2.739484953703704040e+00 2.752518325617284045e+00 2.775491415895061653e+00 2.791247588734567575e+00 2.824158468364197816e+00 2.846364293981481719e+00 2.790656346450617331e+00 2.788948206018518672e+00 2.685974633487654639e+00 2.534988908179012235e+00 2.518837287808641801e+00 2.523443769290123040e+00 2.524293981481481541e+00 2.529388020833333250e+00 2.586209008487654337e+00 2.623503086419753050e+00 2.633732638888889088e+00 2.615641396604938329e+00 2.613036265432099103e+00 2.634665798611111054e+00 2.660516975308641729e+00 2.660905671296295960e+00 2.700590277777777715e+00 2.715237750771605008e+00 2.737076099537037344e+00 2.734337866512345450e+00 2.730028935185185190e+00 2.736247588734567859e+00 2.726283275462963118e+00 2.733064236111110823e+00 2.742132523148148149e+00 2.768270158179012341e+00 2.766169463734567735e+00 2.780360243055555625e+00 2.816653163580247199e+00 2.809957561728395170e+00 2.798078703703704040e+00 2.810483699845678807e+00 2.737407407407407511e+00 2.667132523148148415e+00 2.543324652777777750e+00 2.565080536265432087e+00 2.606685956790123271e+00 2.632987075617283956e+00 2.648358410493826920e+00 2.652342785493826849e+00 2.604317129629629690e+00 2.598414351851851656e+00 2.639858217592592649e+00 2.667989969135802664e+00 2.671154031635802450e+00 2.689300733024691414e+00 2.710150945216049490e+00 2.757241994598765622e+00 2.747098283179012057e+00 2.759779610339506473e+00 2.746980613425925810e+00 2.747906539351851585e+00 2.745775945216049063e+00 2.755164448302469093e+00 2.753201678240740691e+00 2.775857928240740513e+00 2.806428915895061937e+00 2.817316743827160241e+00 2.762278645833333712e+00 2.780666473765431856e+00 2.684090952932098872e+00 2.612344714506172672e+00 2.582473958333333375e+00 2.571860532407407529e+00 2.519907889660493616e+00 2.562053915895061706e+00 2.620972222222222481e+00 2.639053819444444393e+00 2.624369695216049347e+00 2.596738040123456770e+00 2.589899209104938205e+00 2.628426408179012519e+00 2.644365837191358093e+00 2.651190682870370185e+00 2.682381847993827062e+00 2.719663869598765160e+00 2.752569444444444624e+00 2.750288387345678931e+00 2.752841435185185315e+00 2.734877989969135559e+00 2.732282503858024736e+00 2.743794367283950653e+00 2.740505883487654337e+00 2.739903549382716186e+00 2.751020447530863944e+00 2.773234471450617189e+00 2.807203896604938187e+00 2.807400655864197514e+00 2.810867573302469058e+00 2.757187982253086478e+00 2.629941647376543568e+00 2.578749035493827169e+00 2.544882812500000036e+00 2.540494309413580343e+00 2.525070891203703649e+00 2.514826871141975229e+00 2.554938753858024825e+00 2.605718074845678967e+00 2.598075327932098944e+00 2.589024402006173009e+00 2.612411747685185137e+00 2.628808352623456912e+00 2.626216724537036917e+00 2.647711709104938471e+00 2.683838734567900897e+00 2.704531732253086407e+00 2.714422743055555642e+00 2.697838541666666590e+00 2.699942129629629761e+00 2.705230999228395383e+00 2.712442611882715848e+00 2.724032118055555785e+00 2.734432870370370416e+00 2.749381269290123608e+00 2.761038290895061920e+00 2.779182581018518672e+00 2.804171006944444322e+00 2.825487557870370647e+00 2.815572916666666536e+00 2.748967978395061795e+00 2.640152391975308710e+00 2.597754147376543088e+00 2.572160011574074368e+00 2.564811439043209962e+00 2.565833333333333410e+00 2.589061535493827115e+00 2.541207561728394904e+00 2.559372588734567966e+00 2.549850501543209802e+00 2.537678433641975317e+00 2.559252507716049063e+00 2.641684992283950706e+00 2.636149209104938329e+00 2.675098861882716061e+00 2.691983506944444215e+00 2.697547743055555447e+00 2.708541666666666625e+00 2.713566743827160455e+00 2.740139853395061831e+00 2.728822337962963029e+00 2.728336226851852064e+00 2.737570408950617207e+00 2.756475212191358271e+00 2.752053433641975300e+00 2.790920621141975033e+00 2.817106963734567593e+00 2.805472125771605096e+00 2.798720100308641712e+00 2.734749710648148202e+00 2.626658950617283939e+00 2.591562017746913416e+00 2.564363425925925810e+00 2.586476658950617402e+00 2.632815875771604919e+00 2.648056520061728314e+00 2.680197241512345840e+00 2.585977044753086318e+00 2.555278260030864335e+00 2.553228202160493954e+00 2.590398823302469289e+00 2.645636091820987801e+00 2.669418402777778088e+00 2.670492380401234378e+00 2.706835455246913824e+00 2.724559702932098926e+00 2.752205343364197532e+00 2.761703800154321264e+00 2.751608796296296511e+00 2.740702642746913664e+00 2.736257233796296262e+00 2.744749710648148433e+00 2.757406925154321176e+00 2.769546682098765533e+00 2.765671778549382953e+00 2.800169753086419799e+00 2.756196952160494096e+00 2.765320698302469182e+00 2.695258487654320856e+00 2.625650077160493812e+00 2.584817708333333464e+00 2.590519868827160455e+00 2.601650270061728776e+00 2.626016107253086318e+00 2.648317901234567895e+00 2.654484953703703631e+00 2.640754243827160508e+00 2.617205825617284098e+00 2.535229070216049152e+00 2.579784915123456646e+00 2.636420717592592666e+00 2.663195891203703702e+00 2.669115065586419977e+00 2.701436149691358146e+00 2.720664062500000036e+00 2.741821952160493847e+00 2.735800540123456859e+00 2.732331211419753103e+00 2.722432484567901323e+00 2.739977816358024842e+00 2.750533854166666625e+00 2.753518518518518476e+00 2.775698302469135736e+00 2.789779610339506277e+00 2.812607542438271491e+00 2.816514756944444642e+00 2.800877218364197674e+00 2.748796296296295960e+00 2.636843171296296529e+00 2.597412712191357720e+00 2.558564332561728438e+00 2.551155478395061849e+00 2.551781925154320785e+00 2.571769868827160632e+00 2.617836612654321105e+00 2.644298321759259274e+00 2.641912133487654302e+00 2.629747299382716008e+00 2.635620659722222481e+00 2.560397376543209536e+00 2.608494405864197674e+00 2.666017071759259505e+00 2.694652777777777786e+00 2.697432002314814614e+00 2.745315393518518832e+00 2.745697820216049134e+00 2.743742766203703720e+00 2.744221643518518494e+00 2.747272376543210104e+00 2.748737461419753281e+00 2.750054494598765498e+00 2.764959972993827009e+00 2.774633487654321051e+00 2.790287905092592613e+00 2.816834972993827346e+00 2.784607928240740993e+00 2.787960551697531209e+00 2.704036940586419746e+00 2.639134837962962887e+00 2.589187885802469058e+00 2.574891010802469182e+00 2.563352623456789825e+00 2.564813850308641729e+00 2.611936246141975282e+00 2.661456404320987623e+00 2.671798804012345929e+00 2.647991415895061706e+00 2.639381269290123289e+00 2.661503182870370576e+00 2.566753954475308408e+00 2.615494791666666874e+00 2.672673128858024771e+00 2.696115451388888751e+00 2.713658371913580503e+00 2.722610918209876552e+00 2.737372202932098819e+00 2.722086709104938329e+00 2.726459297839506135e+00 2.715744598765431839e+00 2.726767939814815023e+00 2.742360628858024896e+00 2.746964699074074368e+00 2.751228780864197532e+00 2.794741512345678913e+00 2.794108314043209695e+00 2.800714699074073888e+00 2.810139853395061671e+00 2.741808931327160526e+00 2.647456114969135577e+00 2.609206211419753174e+00 2.593975212191358182e+00 2.611991222993827133e+00 2.644008969907407192e+00 2.688981481481481417e+00 2.689206693672839599e+00 2.680196759259259487e+00 2.634105902777777786e+00 2.596983024691358111e+00 2.616574074074073941e+00 2.658210358796296191e+00 2.608084490740740780e+00 2.644021990740740513e+00 2.695655864197530782e+00 2.710669849537036935e+00 2.721508969907407760e+00 2.717978877314815023e+00 2.718618827160493634e+00 2.730361207561728509e+00 2.723213252314814703e+00 2.739711612654320838e+00 2.733264371141975513e+00 2.766757330246913504e+00 2.753744212962963012e+00 2.764779128086419568e+00 2.746374903549382740e+00 2.767927276234567913e+00 2.694089506172839599e+00 2.583496334876543177e+00 2.561734664351852153e+00 2.540681423611110823e+00 2.556548996913579952e+00 2.591670042438271704e+00 2.617634548611111001e+00 2.638869598765432034e+00 2.625815489969135719e+00 2.591992669753086176e+00 2.579894386574073994e+00 2.611075424382716115e+00 2.648726851851851638e+00 2.659538001543209962e+00 2.662652874228395472e+00 2.615548321759259220e+00 2.656309317129629921e+00 2.702517361111111072e+00 2.713873939043209838e+00 2.708247010030864210e+00 2.703104745370370487e+00 2.717897858796296529e+00 2.741184413580246559e+00 2.751745756172839563e+00 2.745605227623456823e+00 2.758391685956790074e+00 2.759511477623456610e+00 2.771220582561728207e+00 2.698295717592592791e+00 2.580873360339506206e+00 2.541250482253086584e+00 2.531807002314814703e+00 2.525626929012345645e+00 2.521837384259259185e+00 2.544492669753086744e+00 2.596921296296296422e+00 2.615706500771604937e+00 2.612016782407407423e+00 2.592003279320987730e+00 2.607523148148148007e+00 2.636649787808642120e+00 2.638249421296296138e+00 2.638366608796296031e+00 2.656262056327160614e+00 2.669171489197530889e+00 2.601294367283950582e+00 2.634719328703703400e+00 2.668720100308641818e+00 2.681127989969136038e+00 2.695510223765432034e+00 2.705675636574073728e+00 2.707368827160494096e+00 2.713832465277777661e+00 2.731570216049382882e+00 2.730778838734567504e+00 2.747240065586419977e+00 2.755068479938271864e+00 2.763328510802469218e+00 2.696472318672839208e+00 2.574275173611110912e+00 2.532053433641975104e+00 2.523995466820987854e+00 2.526473283179012430e+00 2.534733796296296138e+00 2.560912422839506153e+00 2.604165702160493812e+00 2.612749324845679233e+00 2.603621238425925632e+00 2.582621045524691183e+00 2.601119309413580272e+00 2.626751543209876694e+00 2.628267746913580449e+00 2.633907214506172600e+00 2.651949749228394992e+00 2.677046682098765729e+00 2.689127604166666519e+00 2.625370852623456930e+00 2.659131944444444784e+00 2.700944733796295960e+00 2.716846064814814721e+00 2.715815007716049223e+00 2.709008005401234431e+00 2.713989197530863873e+00 2.712436824845679162e+00 2.743050250771605025e+00 2.776268325617283761e+00 2.781114486882716008e+00 2.761679687500000036e+00 2.693013599537037006e+00 2.597250192901234378e+00 2.546310281635802752e+00 2.529158950617284241e+00 2.551796874999999964e+00 2.585669367283950582e+00 2.610478395061728296e+00 2.631962287808641943e+00 2.628388792438271615e+00 2.585230034722222126e+00 2.556224440586419622e+00 2.570521315586419497e+00 2.622931134259259167e+00 2.642632619598765498e+00 2.638557098765432318e+00 2.658187692901234467e+00 2.689210551697530871e+00 2.690389178240740975e+00 2.711723572530864157e+00 2.656148244598765640e+00 2.679796489197530551e+00 2.711580343364197176e+00 2.722032696759259185e+00 2.717889660493827186e+00 2.734007040895062079e+00 2.754245273919752712e+00 2.724882330246913398e+00 2.735678047839506188e+00 2.646906346450617065e+00 2.584552951388888520e+00 2.541782889660493705e+00 2.541075424382715831e+00 2.569120370370370665e+00 2.608910590277777608e+00 2.613608217592592542e+00 2.644302662037037344e+00 2.615980902777777839e+00 2.573062789351852064e+00 2.566865837191357969e+00 2.597695794753086318e+00 2.632563175154321033e+00 2.633125000000000160e+00 2.662939332561728545e+00 2.706772762345678984e+00 2.703971836419753139e+00 2.693509355709876374e+00 2.689996141975308674e+00 2.698534432870370647e+00 2.707811053240740673e+00 2.664590567129629495e+00 2.689299768518518263e+00 2.727280574845678984e+00 2.739601176697530782e+00 2.750426311728395135e+00 2.739567901234567504e+00 2.721715374228395046e+00 2.695409432870370381e+00 2.555153838734567806e+00 2.514662905092592382e+00 2.492772955246913558e+00 2.497119502314814721e+00 2.628040123456790056e+00 2.866929012345678984e+00 2.966258680555555305e+00 2.977685185185185102e+00 2.948801118827160561e+00 2.934526427469136056e+00 2.942567033179012359e+00 2.973459201388888751e+00 2.986631944444444464e+00 3.002240547839506224e+00 3.037955246913580432e+00 3.061443383487654213e+00 3.079387538580246719e+00 3.049725597993826920e+00 3.036833526234567593e+00 3.035672743055555678e+00 3.023226755401234200e+00 3.044918016975308728e+00 3.056715374228395010e+00 2.985249324845678842e+00 3.020095003858024985e+00 3.067422839506172672e+00 3.078210841049382473e+00 3.053354552469135896e+00 3.047232349537037255e+00
